217.08,-0.19,0.135
217.08,-0.19,0.115
217.09,-0.205,0.09
217.09,-0.205,0.07
217.09,-0.215,0.05
217.09,-0.21,0.05
217.1,-0.21,0.05
217.1,-0.2,0.03
217.1,-0.2,0.015
217.11,-0.21,-0.005
217.11,-0.215,0
217.11,-0.215,0.01
217.11,-0.205,0.02
217.12,-0.2,-0.005
217.12,-0.205,-0.02
217.12,-0.22,-0.03
217.12,-0.23,-0.025
217.13,-0.215,-0.025
217.13,-0.205,-0.005
217.13,-0.205,-0.02
217.14,-0.205,-0.03
217.14,-0.22,-0.04
217.14,-0.23,-0.04
217.14,-0.21,-0.025
217.15,-0.205,-0.02
217.15,-0.205,-0.025
217.15,-0.215,-0.03
217.16,-0.22,-0.045
217.16,-0.23,-0.04
217.16,-0.23,-0.035
217.16,-0.205,-0.02
217.17,-0.215,-0.02
217.17,-0.22,-0.03
217.17,-0.215,-0.05
217.17,-0.235,-0.05
217.18,-0.225,-0.03
217.18,-0.215,-0.02
217.18,-0.215,-0.025
217.19,-0.23,-0.035
217.19,-0.225,-0.03
217.19,-0.225,-0.04
217.19,-0.225,-0.03
217.2,-0.225,-0.03
217.2,-0.225,-0.025
217.2,-0.23,-0.045
217.21,-0.24,-0.05
217.21,-0.24,-0.045
217.21,-0.235,-0.045
217.21,-0.25,-0.035
217.22,-0.24,-0.05
217.22,-0.245,-0.06
217.22,-0.25,-0.07
217.23,-0.26,-0.07
217.23,-0.255,-0.065
217.23,-0.255,-0.06
217.23,-0.26,-0.07
217.24,-0.25,-0.075
217.24,-0.27,-0.095
217.24,-0.27,-0.1
217.24,-0.26,-0.085
217.25,-0.255,-0.085
217.25,-0.25,-0.09
217.25,-0.26,-0.095
217.26,-0.27,-0.115
217.26,-0.27,-0.115
217.26,-0.27,-0.115
217.26,-0.25,-0.105
217.27,-0.25,-0.12
217.27,-0.27,-0.12
217.27,-0.26,-0.14
217.27,-0.275,-0.14
217.28,-0.28,-0.14
217.28,-0.27,-0.125
217.28,-0.27,-0.13
217.29,-0.27,-0.15
217.29,-0.275,-0.15
217.29,-0.28,-0.15
217.29,-0.275,-0.145
217.3,-0.265,-0.145
217.3,-0.26,-0.14
217.3,-0.275,-0.16
217.31,-0.28,-0.165
217.31,-0.28,-0.165
217.31,-0.27,-0.15
217.31,-0.27,-0.155
217.32,-0.27,-0.16
217.32,-0.265,-0.175
217.32,-0.28,-0.18
217.32,-0.275,-0.18
217.33,-0.285,-0.17
217.33,-0.27,-0.155
217.33,-0.275,-0.18
217.34,-0.27,-0.185
217.34,-0.285,-0.195
217.34,-0.3,-0.18
217.34,-0.285,-0.175
217.35,-0.28,-0.16
217.35,-0.275,-0.175
217.35,-0.28,-0.175
217.36,-0.29,-0.18
217.36,-0.29,-0.18
217.36,-0.28,-0.17
217.36,-0.27,-0.155
217.37,-0.275,-0.165
217.37,-0.275,-0.155
217.37,-0.285,-0.155
217.38,-0.295,-0.15
217.38,-0.295,-0.15
217.38,-0.295,-0.14
217.38,-0.28,-0.13
217.39,-0.29,-0.135
217.39,-0.305,-0.145
217.39,-0.305,-0.145
217.39,-0.3,-0.13
217.4,-0.29,-0.12
217.4,-0.285,-0.12
217.4,-0.275,-0.14
217.41,-0.275,-0.16
217.41,-0.27,-0.17
217.41,-0.265,-0.17
217.41,-0.26,-0.17
217.42,-0.265,-0.175
217.42,-0.25,-0.195
217.42,-0.255,-0.21
217.42,-0.26,-0.205
217.43,-0.235,-0.2
217.43,-0.23,-0.21
217.43,-0.215,-0.22
217.44,-0.23,-0.24
217.44,-0.245,-0.24
217.44,-0.25,-0.24
217.44,-0.24,-0.245
217.45,-0.225,-0.235
217.45,-0.22,-0.245
217.45,-0.225,-0.235
217.46,-0.225,-0.215
217.46,-0.22,-0.145
217.46,-0.2,-0.035
217.46,-0.18,0.225
217.47,-0.17,0.625
217.47,-0.13,0.9
217.47,-0.07,0.78
217.48,0.085,0.485
217.48,0.425,0.305
217.48,0.8,0.245
217.48,0.925,0.21
217.49,0.7,0.155
217.49,0.355,0.105
217.49,0.165,0.07
217.49,0.145,0.03
217.5,0.17,-0.04
217.5,0.195,-0.15
217.5,0.185,-0.32
217.51,0.185,-0.515
217.51,0.2,-0.735
217.51,0.23,-0.965
217.51,0.25,-1.19
217.52,0.27,-1.43
217.52,0.28,-1.685
217.52,0.275,-1.91
217.52,0.28,-2.08
217.53,0.29,-2.2
217.53,0.32,-2.295
217.53,0.35,-2.37
217.54,0.365,-2.465
217.54,0.37,-2.565
217.54,0.375,-2.66
217.54,0.39,-2.75
217.55,0.4,-2.83
217.55,0.395,-2.905
217.55,0.345,-2.96
217.56,0.28,-3.005
217.56,0.23,-3.025
217.56,0.195,-3.05
217.56,0.14,-3.08
217.57,0.06,-3.11
217.57,-0.035,-3.14
217.57,-0.135,-3.165
217.57,-0.185,-3.175
217.58,-0.205,-3.165
217.58,-0.185,-3.16
217.58,-0.16,-3.17
217.59,-0.175,-3.165
217.59,-0.195,-3.16
217.59,-0.215,-3.105
217.59,-0.25,-3.045
217.6,-0.28,-2.965
217.6,-0.32,-2.855
217.6,-0.36,-2.75
217.61,-0.395,-2.63
217.61,-0.4,-2.485
217.61,-0.41,-2.315
217.61,-0.405,-2.105
217.62,-0.39,-1.86
217.62,-0.395,-1.63
217.62,-0.4,-1.39
217.62,-0.425,-1.135
217.63,-0.41,-0.9
217.63,-0.405,-0.695
217.63,-0.41,-0.495
217.64,-0.415,-0.325
217.64,-0.43,-0.15
217.64,-0.445,-0.005
217.64,-0.44,0.135
217.65,-0.44,0.28
217.65,-0.445,0.405
217.65,-0.445,0.52
217.66,-0.44,0.6
217.66,-0.44,0.675
217.66,-0.44,0.74
217.66,-0.42,0.8
217.67,-0.425,0.835
217.67,-0.415,0.87
217.67,-0.41,0.9
217.67,-0.425,0.955
217.68,-0.41,1
217.68,-0.39,1.035
217.68,-0.385,1.07
217.69,-0.395,1.1
217.69,-0.4,1.135
217.69,-0.4,1.175
217.69,-0.38,1.225
217.7,-0.39,1.27
217.7,-0.365,1.305
217.7,-0.375,1.325
217.71,-0.375,1.36
217.71,-0.375,1.415
217.71,-0.37,1.45
217.71,-0.36,1.495
217.72,-0.365,1.53
217.72,-0.36,1.56
217.72,-0.365,1.6
217.73,-0.365,1.625
217.73,-0.355,1.675
217.73,-0.345,1.715
217.73,-0.345,1.745
217.74,-0.355,1.785
217.74,-0.355,1.805
217.74,-0.365,1.855
217.74,-0.34,1.89
217.75,-0.34,1.925
217.75,-0.335,1.965
217.75,-0.325,1.985
217.76,-0.33,2
217.76,-0.33,2.025
217.76,-0.31,2.06
217.76,-0.315,2.08
217.77,-0.305,2.1
217.77,-0.295,2.09
217.77,-0.3,2.09
217.77,-0.31,2.105
217.78,-0.29,2.105
217.78,-0.28,2.11
217.78,-0.255,2.095
217.79,-0.255,2.055
217.79,-0.25,2.03
217.79,-0.255,1.99
217.79,-0.24,1.975
217.8,-0.225,1.945
217.8,-0.22,1.91
217.8,-0.22,1.85
217.81,-0.22,1.795
217.81,-0.225,1.735
217.81,-0.2,1.68
217.81,-0.19,1.63
217.82,-0.185,1.565
217.82,-0.18,1.485
217.82,-0.19,1.4
217.82,-0.195,1.33
217.83,-0.185,1.27
217.83,-0.17,1.21
217.83,-0.17,1.135
217.84,-0.17,1.055
217.84,-0.185,0.975
217.84,-0.185,0.915
217.84,-0.185,0.855
217.85,-0.18,0.815
217.85,-0.18,0.75
217.85,-0.195,0.705
217.86,-0.195,0.63
217.86,-0.205,0.585
217.86,-0.195,0.54
217.86,-0.2,0.5
217.87,-0.195,0.46
217.87,-0.205,0.41
217.87,-0.215,0.365
217.88,-0.22,0.32
217.88,-0.22,0.29
217.88,-0.21,0.27
217.88,-0.21,0.24
217.89,-0.235,0.2
217.89,-0.23,0.155
217.89,-0.255,0.15
217.89,-0.235,0.125
217.9,-0.24,0.115
217.9,-0.24,0.105
217.9,-0.255,0.07
217.91,-0.26,0.06
217.91,-0.26,0.055
217.91,-0.25,0.035
217.91,-0.24,0.035
217.92,-0.25,0.025
217.92,-0.27,0.005
217.92,-0.285,-0.005
217.92,-0.28,-0.01
217.93,-0.27,-0.015
217.93,-0.26,0
217.93,-0.265,-0.01
217.94,-0.265,-0.02
217.94,-0.275,-0.035
217.94,-0.29,-0.035
217.94,-0.28,-0.015
217.95,-0.265,-0.01
217.95,-0.285,-0.025
217.95,-0.29,-0.03
217.96,-0.31,-0.03
217.96,-0.305,-0.03
217.96,-0.295,-0.02
217.96,-0.29,-0.02
217.97,-0.285,-0.02
217.97,-0.28,-0.035
217.97,-0.28,-0.04
217.98,-0.28,-0.025
217.98,-0.265,-0.005
217.98,-0.255,0
217.98,-0.255,-0.01
217.99,-0.255,-0.03
217.99,-0.255,-0.03
217.99,-0.275,-0.03
217.99,-0.275,-0.015
218,-0.275,-0.015
218,-0.285,-0.02
218,-0.3,-0.02
218.01,-0.305,-0.025
218.01,-0.3,-0.015
218.01,-0.31,-0.03
218.01,-0.29,-0.015
218.02,-0.285,-0.025
218.02,-0.29,-0.025
218.02,-0.295,-0.04
218.02,-0.295,-0.04
218.03,-0.295,-0.035
218.03,-0.28,-0.04
218.03,-0.295,-0.05
218.04,-0.31,-0.06
218.04,-0.335,-0.065
218.04,-0.345,-0.075
218.04,-0.35,-0.075
218.05,-0.335,-0.06
218.05,-0.325,-0.07
218.05,-0.315,-0.09
218.06,-0.32,-0.09
218.06,-0.32,-0.1
218.06,-0.31,-0.09
218.06,-0.3,-0.09
218.07,-0.315,-0.095
218.07,-0.32,-0.1
218.07,-0.33,-0.125
218.07,-0.34,-0.12
218.08,-0.345,-0.11
218.08,-0.335,-0.115
218.08,-0.34,-0.115
218.09,-0.335,-0.13
218.09,-0.34,-0.145
218.09,-0.35,-0.14
218.09,-0.345,-0.145
218.1,-0.34,-0.135
218.1,-0.325,-0.15
218.1,-0.335,-0.16
218.11,-0.34,-0.175
218.11,-0.355,-0.155
218.11,-0.35,-0.165
218.11,-0.34,-0.155
218.12,-0.34,-0.16
218.12,-0.335,-0.16
218.12,-0.34,-0.185
218.12,-0.36,-0.175
218.13,-0.345,-0.175
218.13,-0.34,-0.18
218.13,-0.35,-0.175
218.14,-0.355,-0.19
218.14,-0.38,-0.19
218.14,-0.375,-0.185
218.14,-0.36,-0.185
218.15,-0.35,-0.18
218.15,-0.34,-0.175
218.15,-0.345,-0.2
218.16,-0.35,-0.195
218.16,-0.34,-0.21
218.16,-0.335,-0.185
218.16,-0.33,-0.18
218.17,-0.345,-0.195
218.17,-0.345,-0.205
218.17,-0.355,-0.215
218.17,-0.36,-0.205
218.18,-0.36,-0.19
218.18,-0.365,-0.2
218.18,-0.36,-0.2
218.19,-0.37,-0.21
218.19,-0.37,-0.21
218.19,-0.365,-0.205
218.19,-0.355,-0.205
218.2,-0.335,-0.205
218.2,-0.345,-0.2
218.2,-0.365,-0.21
218.21,-0.365,-0.22
218.21,-0.38,-0.22
218.21,-0.375,-0.2
218.21,-0.35,-0.195
218.22,-0.34,-0.195
218.22,-0.33,-0.205
218.22,-0.35,-0.22
218.23,-0.365,-0.22
218.23,-0.345,-0.195
218.23,-0.345,-0.195
218.23,-0.335,-0.205
218.24,-0.33,-0.21
218.24,-0.33,-0.22
218.24,-0.34,-0.22
218.24,-0.33,-0.21
218.25,-0.32,-0.195
218.25,-0.325,-0.205
218.25,-0.33,-0.21
218.26,-0.335,-0.22
218.26,-0.33,-0.2
218.26,-0.325,-0.175
218.26,-0.31,-0.145
218.27,-0.285,-0.125
218.27,-0.27,-0.01
218.27,-0.25,0.26
218.27,-0.235,0.67
218.28,-0.18,0.845
218.28,-0.1,0.67
218.28,0.07,0.41
218.29,0.435,0.265
218.29,0.765,0.2
218.29,0.79,0.15
218.29,0.535,0.105
218.3,0.26,0.04
218.3,0.125,-0.045
218.3,0.1,-0.175
218.31,0.1,-0.335
218.31,0.105,-0.505
218.31,0.115,-0.68
218.31,0.125,-0.89
218.32,0.12,-1.13
218.32,0.11,-1.35
218.32,0.11,-1.535
218.32,0.095,-1.69
218.33,0.085,-1.83
218.33,0.065,-1.97
218.33,0.035,-2.14
218.34,0.03,-2.335
218.34,0.045,-2.525
218.34,0.065,-2.69
218.34,0.08,-2.785
218.35,0.075,-2.88
218.35,0.06,-2.96
218.35,0.005,-3.035
218.36,-0.045,-3.11
218.36,-0.125,-3.145
218.36,-0.195,-3.155
218.36,-0.26,-3.165
218.37,-0.32,-3.18
218.37,-0.38,-3.205
218.37,-0.475,-3.225
218.38,-0.55,-3.21
218.38,-0.605,-3.215
218.38,-0.63,-3.205
218.38,-0.615,-3.195
218.39,-0.58,-3.2
218.39,-0.545,-3.195
218.39,-0.535,-3.18
218.39,-0.52,-3.13
218.4,-0.515,-3.065
218.4,-0.5,-2.98
218.4,-0.495,-2.87
218.41,-0.485,-2.735
218.41,-0.485,-2.55
218.41,-0.47,-2.36
218.41,-0.44,-2.14
218.42,-0.41,-1.9
218.42,-0.385,-1.675
218.42,-0.38,-1.425
218.42,-0.38,-1.175
218.43,-0.375,-0.945
218.43,-0.38,-0.75
218.43,-0.38,-0.555
218.44,-0.38,-0.375
218.44,-0.395,-0.22
218.44,-0.41,-0.06
218.44,-0.41,0.105
218.45,-0.4,0.26
218.45,-0.385,0.39
218.45,-0.39,0.485
218.46,-0.395,0.56
218.46,-0.395,0.62
218.46,-0.405,0.685
218.46,-0.4,0.73
218.47,-0.41,0.765
218.47,-0.41,0.79
218.47,-0.42,0.81
218.48,-0.415,0.87
218.48,-0.395,0.895
218.48,-0.38,0.93
218.48,-0.375,0.945
218.49,-0.37,0.975
218.49,-0.375,0.975
218.49,-0.385,1.025
218.49,-0.39,1.045
218.5,-0.38,1.08
218.5,-0.39,1.095
218.5,-0.39,1.115
218.51,-0.38,1.13
218.51,-0.37,1.16
218.51,-0.355,1.2
218.51,-0.345,1.235
218.52,-0.345,1.255
218.52,-0.345,1.265
218.52,-0.345,1.295
218.52,-0.36,1.33
218.53,-0.355,1.355
218.53,-0.365,1.4
218.53,-0.365,1.43
218.54,-0.35,1.46
218.54,-0.35,1.475
218.54,-0.345,1.52
218.54,-0.33,1.555
218.55,-0.315,1.595
218.55,-0.305,1.615
218.55,-0.31,1.64
218.56,-0.31,1.665
218.56,-0.32,1.695
218.56,-0.31,1.725
218.56,-0.295,1.75
218.57,-0.3,1.775
218.57,-0.3,1.78
218.57,-0.295,1.805
218.57,-0.275,1.825
218.58,-0.26,1.855
218.58,-0.245,1.87
218.58,-0.225,1.875
218.59,-0.22,1.875
218.59,-0.22,1.875
218.59,-0.205,1.88
218.59,-0.18,1.885
218.6,-0.155,1.89
218.6,-0.145,1.875
218.6,-0.145,1.85
218.61,-0.145,1.82
218.61,-0.145,1.8
218.61,-0.15,1.78
218.61,-0.13,1.75
218.62,-0.13,1.715
218.62,-0.135,1.655
218.62,-0.14,1.61
218.62,-0.13,1.555
218.63,-0.115,1.51
218.63,-0.085,1.455
218.63,-0.08,1.39
218.64,-0.085,1.315
218.64,-0.085,1.25
218.64,-0.095,1.195
218.64,-0.085,1.13
218.65,-0.08,1.07
218.65,-0.075,0.995
218.65,-0.08,0.93
218.66,-0.09,0.85
218.66,-0.1,0.8
218.66,-0.1,0.74
218.66,-0.1,0.69
218.67,-0.105,0.625
218.67,-0.11,0.555
218.67,-0.12,0.5
218.67,-0.125,0.445
218.68,-0.12,0.405
218.68,-0.105,0.38
218.68,-0.11,0.335
218.69,-0.125,0.295
218.69,-0.15,0.24
218.69,-0.165,0.215
218.69,-0.185,0.2
218.7,-0.165,0.175
218.7,-0.17,0.155
218.7,-0.18,0.12
218.71,-0.195,0.11
218.71,-0.21,0.095
218.71,-0.215,0.08
218.71,-0.21,0.08
218.72,-0.22,0.06
218.72,-0.235,0.055
218.72,-0.245,0.045
218.73,-0.255,0.035
218.73,-0.235,0.045
218.73,-0.235,0.045
218.73,-0.25,0.05
218.74,-0.245,0.03
218.74,-0.245,0.005
218.74,-0.245,0.015
218.74,-0.235,0.02
218.75,-0.23,0.02
218.75,-0.225,0.03
218.75,-0.24,0.01
218.76,-0.24,0
218.76,-0.255,0.005
218.76,-0.245,0.015
218.76,-0.235,0.015
218.77,-0.24,0.01
218.77,-0.245,0.01
218.77,-0.26,-0.005
218.77,-0.26,0
218.78,-0.265,0.005
218.78,-0.255,0.005
218.78,-0.255,0.005
218.79,-0.265,0.005
218.79,-0.26,-0.015
218.79,-0.275,-0.01
218.79,-0.26,-0.005
218.8,-0.25,-0.005
218.8,-0.26,-0.01
218.8,-0.265,-0.01
218.81,-0.27,-0.035
218.81,-0.275,-0.02
218.81,-0.27,-0.01
218.81,-0.265,-0.02
218.82,-0.265,-0.025
218.82,-0.27,-0.03
218.82,-0.275,-0.045
218.82,-0.275,-0.04
218.83,-0.27,-0.035
218.83,-0.275,-0.035
218.83,-0.265,-0.035
218.84,-0.27,-0.06
218.84,-0.28,-0.075
218.84,-0.28,-0.08
218.84,-0.28,-0.07
218.85,-0.29,-0.075
218.85,-0.275,-0.075
218.85,-0.29,-0.09
218.86,-0.29,-0.11
218.86,-0.31,-0.095
218.86,-0.29,-0.1
218.86,-0.285,-0.085
218.87,-0.3,-0.105
218.87,-0.3,-0.11
218.87,-0.31,-0.13
218.88,-0.315,-0.125
218.88,-0.305,-0.12
218.88,-0.3,-0.12
218.88,-0.305,-0.12
218.89,-0.305,-0.135
218.89,-0.315,-0.16
218.89,-0.325,-0.155
218.89,-0.32,-0.14
218.9,-0.315,-0.145
218.9,-0.315,-0.145
218.9,-0.32,-0.17
218.91,-0.33,-0.18
218.91,-0.34,-0.17
218.91,-0.325,-0.15
218.91,-0.32,-0.16
218.92,-0.325,-0.16
218.92,-0.33,-0.175
218.92,-0.335,-0.19
218.92,-0.335,-0.19
218.93,-0.33,-0.175
218.93,-0.33,-0.175
218.93,-0.32,-0.17
218.94,-0.335,-0.18
218.94,-0.335,-0.2
218.94,-0.345,-0.195
218.94,-0.33,-0.18
218.95,-0.335,-0.185
218.95,-0.33,-0.175
218.95,-0.34,-0.185
218.96,-0.325,-0.195
218.96,-0.355,-0.19
218.96,-0.34,-0.195
218.96,-0.33,-0.185
218.97,-0.335,-0.195
218.97,-0.335,-0.2
218.97,-0.345,-0.215
218.98,-0.35,-0.205
218.98,-0.35,-0.2
218.98,-0.33,-0.19
218.98,-0.335,-0.2
218.99,-0.345,-0.21
218.99,-0.345,-0.22
218.99,-0.36,-0.215
218.99,-0.34,-0.2
219,-0.335,-0.2
219,-0.335,-0.21
219,-0.34,-0.21
219.01,-0.345,-0.225
219.01,-0.35,-0.205
219.01,-0.34,-0.205
219.01,-0.34,-0.195
219.02,-0.335,-0.205
219.02,-0.335,-0.22
219.02,-0.345,-0.215
219.02,-0.35,-0.215
219.03,-0.35,-0.205
219.03,-0.34,-0.195
219.03,-0.34,-0.205
219.04,-0.355,-0.22
219.04,-0.35,-0.22
219.04,-0.35,-0.22
219.04,-0.335,-0.195
219.05,-0.34,-0.205
219.05,-0.335,-0.21
219.05,-0.345,-0.205
219.06,-0.34,-0.23
219.06,-0.345,-0.22
219.06,-0.34,-0.2
219.06,-0.33,-0.21
219.07,-0.32,-0.21
219.07,-0.325,-0.215
219.07,-0.335,-0.225
219.07,-0.345,-0.205
219.08,-0.33,-0.21
219.08,-0.325,-0.2
219.08,-0.33,-0.185
219.09,-0.325,-0.19
219.09,-0.325,-0.195
219.09,-0.32,-0.17
219.09,-0.305,-0.115
219.1,-0.29,-0.01
219.1,-0.28,0.225
219.1,-0.265,0.595
219.11,-0.23,0.855
219.11,-0.175,0.77
219.11,-0.045,0.505
219.11,0.235,0.325
219.12,0.64,0.265
219.12,0.82,0.21
219.12,0.645,0.175
219.12,0.335,0.14
219.13,0.14,0.125
219.13,0.11,0.095
219.13,0.12,0.04
219.14,0.14,-0.05
219.14,0.14,-0.175
219.14,0.135,-0.315
219.14,0.145,-0.495
219.15,0.175,-0.695
219.15,0.19,-0.95
219.15,0.21,-1.19
219.16,0.21,-1.465
219.16,0.19,-1.72
219.16,0.19,-1.945
219.16,0.185,-2.13
219.17,0.185,-2.3
219.17,0.185,-2.465
219.17,0.17,-2.595
219.17,0.17,-2.69
219.18,0.16,-2.77
219.18,0.15,-2.865
219.18,0.125,-2.975
219.19,0.105,-3.06
219.19,0.045,-3.105
219.19,-0.04,-3.15
219.19,-0.1,-3.155
219.2,-0.14,-3.16
219.2,-0.17,-3.175
219.2,-0.26,-3.2
219.21,-0.35,-3.215
219.21,-0.435,-3.21
219.21,-0.475,-3.21
219.21,-0.465,-3.195
219.22,-0.44,-3.195
219.22,-0.43,-3.195
219.22,-0.43,-3.2
219.23,-0.415,-3.18
219.23,-0.425,-3.145
219.23,-0.44,-3.095
219.23,-0.465,-3.04
219.24,-0.49,-2.98
219.24,-0.505,-2.87
219.24,-0.51,-2.74
219.24,-0.49,-2.585
219.25,-0.46,-2.415
219.25,-0.44,-2.24
219.25,-0.44,-2.015
219.26,-0.43,-1.765
219.26,-0.425,-1.545
219.26,-0.425,-1.32
219.26,-0.415,-1.1
219.27,-0.415,-0.875
219.27,-0.42,-0.68
219.27,-0.445,-0.465
219.27,-0.455,-0.27
219.28,-0.455,-0.095
219.28,-0.45,0.07
219.28,-0.465,0.2
219.29,-0.46,0.35
219.29,-0.475,0.475
219.29,-0.455,0.61
219.29,-0.445,0.695
219.3,-0.415,0.775
219.3,-0.41,0.815
219.3,-0.4,0.85
219.31,-0.395,0.87
219.31,-0.395,0.9
219.31,-0.39,0.945
219.31,-0.38,0.975
219.32,-0.365,0.99
219.32,-0.37,1.015
219.32,-0.37,1.03
219.32,-0.365,1.05
219.33,-0.345,1.08
219.33,-0.33,1.105
219.33,-0.345,1.125
219.34,-0.34,1.14
219.34,-0.345,1.15
219.34,-0.37,1.175
219.34,-0.355,1.205
219.35,-0.35,1.235
219.35,-0.34,1.26
219.35,-0.345,1.275
219.36,-0.37,1.32
219.36,-0.375,1.355
219.36,-0.36,1.395
219.36,-0.375,1.44
219.37,-0.38,1.455
219.37,-0.405,1.475
219.37,-0.425,1.495
219.38,-0.44,1.53
219.38,-0.435,1.57
219.38,-0.425,1.605
219.38,-0.42,1.63
219.39,-0.425,1.64
219.39,-0.435,1.68
219.39,-0.44,1.715
219.39,-0.43,1.75
219.4,-0.415,1.775
219.4,-0.43,1.805
219.4,-0.425,1.81
219.41,-0.43,1.825
219.41,-0.435,1.855
219.41,-0.415,1.87
219.41,-0.425,1.895
219.42,-0.415,1.915
219.42,-0.415,1.92
219.42,-0.41,1.92
219.42,-0.41,1.93
219.43,-0.405,1.96
219.43,-0.39,1.97
219.43,-0.375,1.97
219.44,-0.395,1.95
219.44,-0.38,1.93
219.44,-0.38,1.94
219.44,-0.36,1.94
219.45,-0.345,1.93
219.45,-0.33,1.9
219.45,-0.34,1.86
219.46,-0.33,1.825
219.46,-0.33,1.79
219.46,-0.315,1.77
219.46,-0.28,1.735
219.47,-0.275,1.685
219.47,-0.26,1.635
219.47,-0.26,1.575
219.48,-0.26,1.525
219.48,-0.245,1.485
219.48,-0.225,1.425
219.48,-0.225,1.36
219.49,-0.205,1.29
219.49,-0.21,1.215
219.49,-0.205,1.15
219.49,-0.18,1.105
219.5,-0.18,1.04
219.5,-0.16,0.97
219.5,-0.17,0.9
219.51,-0.17,0.83
219.51,-0.18,0.775
219.51,-0.165,0.72
219.51,-0.165,0.665
219.52,-0.165,0.615
219.52,-0.18,0.55
219.52,-0.18,0.5
219.52,-0.19,0.445
219.53,-0.19,0.415
219.53,-0.185,0.385
219.53,-0.195,0.34
219.54,-0.2,0.3
219.54,-0.205,0.275
219.54,-0.22,0.245
219.54,-0.21,0.235
219.55,-0.21,0.2
219.55,-0.21,0.185
219.55,-0.225,0.15
219.56,-0.235,0.14
219.56,-0.24,0.115
219.56,-0.23,0.115
219.56,-0.24,0.1
219.57,-0.24,0.08
219.57,-0.245,0.065
219.57,-0.255,0.045
219.57,-0.26,0.045
219.58,-0.265,0.055
219.58,-0.26,0.05
219.58,-0.265,0.04
219.59,-0.255,0.02
219.59,-0.27,0.015
219.59,-0.28,0.01
219.59,-0.275,0.02
219.6,-0.27,0.025
219.6,-0.27,0.015
219.6,-0.28,0.01
219.61,-0.29,-0.005
219.61,-0.295,0.02
219.61,-0.285,0.02
219.61,-0.27,0.02
219.62,-0.265,0.02
219.62,-0.285,-0.005
219.62,-0.3,-0.005
219.62,-0.29,0
219.63,-0.285,0.015
219.63,-0.29,0.015
219.63,-0.285,0.015
219.64,-0.295,0.005
219.64,-0.305,-0.015
219.64,-0.32,0
219.64,-0.3,0.005
219.65,-0.295,0.015
219.65,-0.295,-0.005
219.65,-0.3,-0.005
219.66,-0.3,-0.02
219.66,-0.31,-0.005
219.66,-0.31,-0.015
219.66,-0.29,-0.005
219.67,-0.29,-0.015
219.67,-0.295,-0.025
219.67,-0.315,-0.045
219.67,-0.32,-0.035
219.68,-0.31,-0.025
219.68,-0.295,-0.035
219.68,-0.31,-0.03
219.69,-0.31,-0.045
219.69,-0.325,-0.055
219.69,-0.33,-0.06
219.69,-0.32,-0.06
219.7,-0.315,-0.055
219.7,-0.32,-0.055
219.7,-0.33,-0.075
219.71,-0.33,-0.08
219.71,-0.335,-0.09
219.71,-0.33,-0.075
219.71,-0.33,-0.08
219.72,-0.33,-0.075
219.72,-0.34,-0.09
219.72,-0.34,-0.095
219.73,-0.34,-0.1
219.73,-0.335,-0.095
219.73,-0.325,-0.105
219.73,-0.335,-0.11
219.74,-0.335,-0.13
219.74,-0.34,-0.125
219.74,-0.34,-0.125
219.74,-0.335,-0.115
219.75,-0.32,-0.125
219.75,-0.32,-0.135
219.75,-0.335,-0.145
219.76,-0.34,-0.15
219.76,-0.34,-0.155
219.76,-0.33,-0.15
219.76,-0.325,-0.135
219.77,-0.33,-0.155
219.77,-0.335,-0.165
219.77,-0.345,-0.175
219.77,-0.355,-0.165
219.78,-0.34,-0.17
219.78,-0.325,-0.17
219.78,-0.32,-0.165
219.79,-0.335,-0.185
219.79,-0.355,-0.205
219.79,-0.355,-0.18
219.79,-0.355,-0.165
219.8,-0.35,-0.175
219.8,-0.345,-0.175
219.8,-0.355,-0.185
219.81,-0.355,-0.2
219.81,-0.365,-0.195
219.81,-0.355,-0.185
219.81,-0.34,-0.185
219.82,-0.345,-0.195
219.82,-0.355,-0.195
219.82,-0.365,-0.2
219.82,-0.36,-0.195
219.83,-0.355,-0.195
219.83,-0.355,-0.195
219.83,-0.345,-0.205
219.84,-0.35,-0.22
219.84,-0.35,-0.21
219.84,-0.36,-0.21
219.84,-0.35,-0.205
219.85,-0.35,-0.2
219.85,-0.35,-0.215
219.85,-0.355,-0.225
219.86,-0.355,-0.225
219.86,-0.36,-0.235
219.86,-0.345,-0.2
219.86,-0.345,-0.2
219.87,-0.345,-0.22
219.87,-0.345,-0.22
219.87,-0.35,-0.24
219.88,-0.35,-0.23
219.88,-0.36,-0.22
219.88,-0.355,-0.21
219.88,-0.335,-0.21
219.89,-0.355,-0.215
219.89,-0.355,-0.24
219.89,-0.355,-0.215
219.89,-0.345,-0.22
219.9,-0.345,-0.205
219.9,-0.34,-0.21
219.9,-0.345,-0.225
219.91,-0.35,-0.24
219.91,-0.34,-0.225
219.91,-0.34,-0.215
219.91,-0.325,-0.225
219.92,-0.34,-0.215
219.92,-0.33,-0.225
219.92,-0.33,-0.235
219.92,-0.33,-0.225
219.93,-0.33,-0.22
219.93,-0.33,-0.215
219.93,-0.335,-0.215
219.94,-0.34,-0.23
219.94,-0.345,-0.235
219.94,-0.335,-0.225
219.94,-0.325,-0.22
219.95,-0.325,-0.215
219.95,-0.315,-0.215
219.95,-0.33,-0.225
219.96,-0.335,-0.215
219.96,-0.325,-0.235
219.96,-0.315,-0.21
219.96,-0.31,-0.185
219.97,-0.305,-0.185
219.97,-0.305,-0.17
219.97,-0.3,-0.105
219.98,-0.29,0.065
219.98,-0.26,0.415
219.98,-0.23,0.785
219.98,-0.185,0.91
219.99,-0.13,0.7
219.99,0,0.43
219.99,0.285,0.285
219.99,0.635,0.23
220,0.785,0.175
220,0.605,0.095
220,0.315,0.03
220.01,0.15,-0.065
220.01,0.1,-0.135
220.01,0.125,-0.27
220.01,0.135,-0.43
220.02,0.125,-0.59
220.02,0.125,-0.785
220.02,0.115,-1.005
220.02,0.105,-1.215
220.03,0.125,-1.37
220.03,0.14,-1.505
220.03,0.145,-1.62
220.04,0.12,-1.76
220.04,0.095,-1.9
220.04,0.095,-2.06
220.04,0.105,-2.22
220.05,0.105,-2.415
220.05,0.105,-2.58
220.05,0.08,-2.715
220.06,0.06,-2.81
220.06,0.025,-2.885
220.06,0,-2.95
220.06,-0.025,-3.03
220.07,-0.085,-3.08
220.07,-0.15,-3.125
220.07,-0.21,-3.155
220.07,-0.27,-3.17
220.08,-0.295,-3.17
220.08,-0.355,-3.175
220.08,-0.41,-3.175
220.09,-0.495,-3.205
220.09,-0.58,-3.2
220.09,-0.62,-3.19
220.09,-0.595,-3.185
220.1,-0.56,-3.175
220.1,-0.53,-3.165
220.1,-0.49,-3.16
220.11,-0.47,-3.15
220.11,-0.465,-3.13
220.11,-0.44,-3.065
220.11,-0.445,-3
220.12,-0.44,-2.92
220.12,-0.455,-2.82
220.12,-0.455,-2.695
220.12,-0.445,-2.525
220.13,-0.43,-2.32
220.13,-0.39,-2.12
220.13,-0.38,-1.89
220.14,-0.35,-1.65
220.14,-0.325,-1.405
220.14,-0.315,-1.145
220.14,-0.325,-0.925
220.15,-0.34,-0.72
220.15,-0.35,-0.515
220.15,-0.37,-0.335
220.16,-0.365,-0.175
220.16,-0.38,-0.01
220.16,-0.375,0.15
220.16,-0.365,0.31
220.17,-0.36,0.44
220.17,-0.35,0.535
220.17,-0.355,0.615
220.17,-0.36,0.695
220.18,-0.33,0.765
220.18,-0.335,0.805
220.18,-0.33,0.835
220.19,-0.33,0.87
220.19,-0.345,0.895
220.19,-0.34,0.925
220.19,-0.32,0.955
220.2,-0.325,0.99
220.2,-0.32,1.02
220.2,-0.33,1.035
220.21,-0.335,1.065
220.21,-0.34,1.09
220.21,-0.33,1.135
220.21,-0.325,1.16
220.22,-0.32,1.16
220.22,-0.33,1.185
220.22,-0.345,1.205
220.23,-0.345,1.235
220.23,-0.33,1.25
220.23,-0.33,1.29
220.23,-0.315,1.315
220.24,-0.32,1.34
220.24,-0.325,1.345
220.24,-0.325,1.39
220.24,-0.315,1.42
220.25,-0.32,1.465
220.25,-0.31,1.49
220.25,-0.32,1.51
220.26,-0.335,1.525
220.26,-0.33,1.56
220.26,-0.315,1.6
220.26,-0.325,1.63
220.27,-0.32,1.65
220.27,-0.32,1.675
220.27,-0.315,1.69
220.27,-0.32,1.72
220.28,-0.305,1.76
220.28,-0.3,1.8
220.28,-0.285,1.815
220.29,-0.29,1.825
220.29,-0.29,1.845
220.29,-0.29,1.875
220.29,-0.27,1.9
220.3,-0.26,1.925
220.3,-0.255,1.945
220.3,-0.25,1.94
220.31,-0.25,1.96
220.31,-0.25,1.96
220.31,-0.23,1.97
220.31,-0.22,1.98
220.32,-0.205,1.965
220.32,-0.19,1.95
220.32,-0.185,1.93
220.32,-0.195,1.925
220.33,-0.17,1.91
220.33,-0.145,1.885
220.33,-0.16,1.855
220.34,-0.16,1.81
220.34,-0.165,1.765
220.34,-0.15,1.735
220.34,-0.145,1.7
220.35,-0.135,1.655
220.35,-0.13,1.6
220.35,-0.13,1.54
220.36,-0.125,1.475
220.36,-0.115,1.425
220.36,-0.105,1.365
220.36,-0.085,1.305
220.37,-0.09,1.23
220.37,-0.085,1.16
220.37,-0.095,1.1
220.38,-0.1,1.045
220.38,-0.085,0.995
220.38,-0.09,0.915
220.38,-0.095,0.845
220.39,-0.095,0.77
220.39,-0.105,0.705
220.39,-0.125,0.645
220.39,-0.125,0.6
220.4,-0.105,0.545
220.4,-0.105,0.5
220.4,-0.115,0.435
220.41,-0.125,0.38
220.41,-0.145,0.345
220.41,-0.135,0.325
220.41,-0.13,0.28
220.42,-0.135,0.26
220.42,-0.16,0.215
220.42,-0.165,0.175
220.42,-0.195,0.175
220.43,-0.185,0.14
220.43,-0.18,0.13
220.43,-0.175,0.11
220.44,-0.185,0.08
220.44,-0.2,0.055
220.44,-0.205,0.05
220.44,-0.205,0.055
220.45,-0.2,0.05
220.45,-0.205,0.035
220.45,-0.225,0.03
220.46,-0.235,0.02
220.46,-0.245,0.02
220.46,-0.235,0.02
220.46,-0.22,0.015
220.47,-0.205,0.01
220.47,-0.215,0
220.47,-0.23,-0.01
220.48,-0.235,-0.005
220.48,-0.24,0
220.48,-0.24,0
220.48,-0.245,-0.015
220.49,-0.255,-0.01
220.49,-0.26,-0.03
220.49,-0.275,-0.015
220.49,-0.26,-0.005
220.5,-0.25,0
220.5,-0.26,-0.01
220.5,-0.255,-0.02
220.51,-0.26,-0.02
220.51,-0.27,-0.01
220.51,-0.265,-0.01
220.51,-0.26,-0.01
220.52,-0.25,-0.005
220.52,-0.255,-0.025
220.52,-0.275,-0.035
220.52,-0.28,-0.035
220.53,-0.275,-0.03
220.53,-0.27,-0.025
220.53,-0.275,-0.04
220.54,-0.28,-0.06
220.54,-0.28,-0.065
220.54,-0.295,-0.06
220.54,-0.285,-0.05
220.55,-0.28,-0.045
220.55,-0.3,-0.055
220.55,-0.31,-0.065
220.56,-0.315,-0.07
220.56,-0.305,-0.07
220.56,-0.295,-0.075
220.56,-0.285,-0.07
220.57,-0.285,-0.08
220.57,-0.305,-0.09
220.57,-0.29,-0.1
220.57,-0.305,-0.095
220.58,-0.29,-0.1
220.58,-0.29,-0.1
220.58,-0.29,-0.11
220.59,-0.285,-0.12
220.59,-0.31,-0.135
220.59,-0.31,-0.12
220.59,-0.31,-0.12
220.6,-0.295,-0.115
220.6,-0.285,-0.115
220.6,-0.3,-0.135
220.61,-0.305,-0.16
220.61,-0.32,-0.15
220.61,-0.32,-0.135
220.61,-0.32,-0.15
220.62,-0.32,-0.145
220.62,-0.325,-0.165
220.62,-0.33,-0.17
220.62,-0.34,-0.17
220.63,-0.325,-0.165
220.63,-0.32,-0.155
220.63,-0.315,-0.16
220.64,-0.32,-0.185
220.64,-0.325,-0.195
220.64,-0.335,-0.195
220.64,-0.35,-0.17
220.65,-0.33,-0.18
220.65,-0.34,-0.185
220.65,-0.345,-0.2
220.66,-0.335,-0.2
220.66,-0.33,-0.2
220.66,-0.32,-0.19
220.66,-0.31,-0.19
220.67,-0.32,-0.205
220.67,-0.335,-0.205
220.67,-0.33,-0.215
220.67,-0.345,-0.205
220.68,-0.33,-0.2
220.68,-0.32,-0.21
220.68,-0.315,-0.205
220.69,-0.325,-0.21
220.69,-0.34,-0.225
220.69,-0.355,-0.21
220.69,-0.365,-0.205
220.7,-0.345,-0.205
220.7,-0.335,-0.205
220.7,-0.33,-0.215
220.71,-0.32,-0.225
220.71,-0.32,-0.225
220.71,-0.32,-0.21
220.71,-0.32,-0.22
220.72,-0.335,-0.215
220.72,-0.35,-0.23
220.72,-0.345,-0.235
220.73,-0.34,-0.23
220.73,-0.33,-0.22
220.73,-0.325,-0.22
220.73,-0.34,-0.225
220.74,-0.345,-0.25
220.74,-0.35,-0.24
220.74,-0.36,-0.235
220.74,-0.335,-0.21
220.75,-0.32,-0.22
220.75,-0.315,-0.225
220.75,-0.315,-0.235
220.76,-0.325,-0.24
220.76,-0.335,-0.235
220.76,-0.33,-0.235
220.76,-0.315,-0.225
220.77,-0.31,-0.23
220.77,-0.31,-0.24
220.77,-0.315,-0.245
220.77,-0.305,-0.23
220.78,-0.305,-0.23
220.78,-0.3,-0.235
220.78,-0.305,-0.225
220.79,-0.31,-0.23
220.79,-0.305,-0.24
220.79,-0.32,-0.24
220.79,-0.315,-0.225
220.8,-0.305,-0.225
220.8,-0.3,-0.23
220.8,-0.315,-0.235
220.81,-0.325,-0.24
220.81,-0.33,-0.23
220.81,-0.32,-0.205
220.81,-0.31,-0.215
220.82,-0.31,-0.215
220.82,-0.305,-0.22
220.82,-0.31,-0.21
220.82,-0.295,-0.2
220.83,-0.285,-0.15
220.83,-0.275,-0.1
220.83,-0.265,0.075
220.84,-0.245,0.43
220.84,-0.215,0.785
220.84,-0.18,0.88
220.84,-0.07,0.665
220.85,0.15,0.415
220.85,0.52,0.29
220.85,0.82,0.245
220.86,0.79,0.195
220.86,0.5,0.145
220.86,0.24,0.115
220.86,0.16,0.075
220.87,0.17,0
220.87,0.17,-0.105
220.87,0.17,-0.245
220.88,0.175,-0.41
220.88,0.175,-0.595
220.88,0.215,-0.8
220.88,0.205,-1.025
220.89,0.215,-1.245
220.89,0.2,-1.47
220.89,0.195,-1.725
220.89,0.21,-1.925
220.9,0.205,-2.11
220.9,0.2,-2.275
220.9,0.21,-2.425
220.91,0.21,-2.565
220.91,0.21,-2.665
220.91,0.2,-2.715
220.91,0.19,-2.785
220.92,0.165,-2.875
220.92,0.135,-2.955
220.92,0.095,-3.04
220.92,0.05,-3.075
220.93,-0.015,-3.1
220.93,-0.07,-3.105
220.93,-0.12,-3.13
220.94,-0.185,-3.155
220.94,-0.285,-3.18
220.94,-0.355,-3.165
220.94,-0.435,-3.17
220.95,-0.475,-3.17
220.95,-0.495,-3.17
220.95,-0.485,-3.165
220.96,-0.475,-3.17
220.96,-0.465,-3.155
220.96,-0.47,-3.14
220.96,-0.485,-3.12
220.97,-0.515,-3.08
220.97,-0.535,-3.045
220.97,-0.54,-2.995
220.98,-0.545,-2.885
220.98,-0.53,-2.76
220.98,-0.52,-2.615
220.98,-0.495,-2.455
220.99,-0.485,-2.265
220.99,-0.46,-2.045
220.99,-0.44,-1.795
220.99,-0.4,-1.56
221,-0.38,-1.33
221,-0.39,-1.11
221,-0.405,-0.9
221.01,-0.39,-0.7
221.01,-0.395,-0.485
221.01,-0.4,-0.29
221.01,-0.4,-0.115
221.02,-0.415,0.045
221.02,-0.43,0.16
221.02,-0.44,0.305
221.02,-0.435,0.45
221.03,-0.42,0.57
221.03,-0.395,0.65
221.03,-0.39,0.71
221.04,-0.405,0.75
221.04,-0.385,0.795
221.04,-0.38,0.835
221.04,-0.36,0.87
221.05,-0.355,0.92
221.05,-0.345,0.945
221.05,-0.345,0.97
221.06,-0.335,0.985
221.06,-0.34,1.015
221.06,-0.32,1.055
221.06,-0.32,1.075
221.07,-0.315,1.11
221.07,-0.32,1.115
221.07,-0.31,1.14
221.07,-0.31,1.18
221.08,-0.3,1.205
221.08,-0.295,1.235
221.08,-0.31,1.27
221.09,-0.33,1.275
221.09,-0.34,1.305
221.09,-0.34,1.33
221.09,-0.33,1.375
221.1,-0.305,1.4
221.1,-0.305,1.43
221.1,-0.305,1.45
221.11,-0.32,1.475
221.11,-0.32,1.505
221.11,-0.305,1.545
221.11,-0.3,1.59
221.12,-0.295,1.61
221.12,-0.295,1.64
221.12,-0.285,1.66
221.12,-0.29,1.69
221.13,-0.28,1.73
221.13,-0.27,1.775
221.13,-0.27,1.795
221.14,-0.265,1.805
221.14,-0.26,1.83
221.14,-0.26,1.865
221.14,-0.255,1.895
221.15,-0.235,1.92
221.15,-0.235,1.94
221.15,-0.23,1.95
221.16,-0.235,1.95
221.16,-0.22,1.98
221.16,-0.19,2
221.16,-0.17,2.005
221.17,-0.17,2.005
221.17,-0.17,1.99
221.17,-0.175,1.98
221.17,-0.175,1.96
221.18,-0.17,1.965
221.18,-0.155,1.95
221.18,-0.14,1.93
221.19,-0.135,1.88
221.19,-0.13,1.855
221.19,-0.11,1.81
221.19,-0.085,1.775
221.2,-0.07,1.735
221.2,-0.08,1.68
221.2,-0.07,1.625
221.21,-0.065,1.56
221.21,-0.07,1.505
221.21,-0.05,1.45
221.21,-0.045,1.4
221.22,-0.05,1.33
221.22,-0.06,1.245
221.22,-0.065,1.175
221.23,-0.055,1.11
221.23,-0.045,1.055
221.23,-0.02,0.99
221.23,-0.025,0.915
221.24,-0.025,0.825
221.24,-0.03,0.74
221.24,-0.035,0.695
221.24,-0.02,0.645
221.25,-0.015,0.59
221.25,-0.02,0.54
221.25,-0.025,0.48
221.26,-0.04,0.415
221.26,-0.065,0.37
221.26,-0.07,0.325
221.26,-0.08,0.29
221.27,-0.1,0.25
221.27,-0.11,0.215
221.27,-0.11,0.17
221.27,-0.11,0.155
221.28,-0.11,0.125
221.28,-0.105,0.12
221.28,-0.12,0.085
221.29,-0.145,0.075
221.29,-0.16,0.06
221.29,-0.175,0.055
221.29,-0.175,0.06
221.3,-0.165,0.045
221.3,-0.18,0.03
221.3,-0.195,0.025
221.31,-0.205,0.005
221.31,-0.21,0
221.31,-0.2,0.005
221.31,-0.195,0.01
221.32,-0.205,-0.01
221.32,-0.225,-0.01
221.32,-0.235,-0.005
221.32,-0.245,0
221.33,-0.23,-0.005
221.33,-0.23,-0.015
221.33,-0.225,-0.01
221.34,-0.245,-0.015
221.34,-0.25,-0.03
221.34,-0.255,-0.025
221.34,-0.255,-0.02
221.35,-0.24,-0.02
221.35,-0.235,-0.005
221.35,-0.25,-0.015
221.36,-0.26,-0.03
221.36,-0.255,-0.01
221.36,-0.26,-0.01
221.36,-0.245,-0.015
221.37,-0.255,-0.015
221.37,-0.265,-0.02
221.37,-0.275,-0.03
221.38,-0.28,-0.025
221.38,-0.265,-0.015
221.38,-0.26,-0.01
221.38,-0.27,-0.025
221.39,-0.29,-0.035
221.39,-0.285,-0.045
221.39,-0.295,-0.04
221.39,-0.285,-0.03
221.4,-0.285,-0.035
221.4,-0.3,-0.035
221.4,-0.295,-0.055
221.41,-0.295,-0.06
221.41,-0.31,-0.05
221.41,-0.295,-0.05
221.41,-0.29,-0.065
221.42,-0.295,-0.075
221.42,-0.3,-0.08
221.42,-0.31,-0.095
221.42,-0.31,-0.095
221.43,-0.305,-0.085
221.43,-0.3,-0.1
221.43,-0.305,-0.095
221.44,-0.32,-0.11
221.44,-0.33,-0.12
221.44,-0.325,-0.105
221.44,-0.32,-0.1
221.45,-0.3,-0.11
221.45,-0.31,-0.11
221.45,-0.315,-0.135
221.46,-0.34,-0.13
221.46,-0.34,-0.125
221.46,-0.335,-0.125
221.46,-0.325,-0.12
221.47,-0.33,-0.13
221.47,-0.335,-0.155
221.47,-0.34,-0.155
221.48,-0.345,-0.145
221.48,-0.335,-0.145
221.48,-0.325,-0.15
221.48,-0.33,-0.155
221.49,-0.33,-0.165
221.49,-0.35,-0.165
221.49,-0.355,-0.16
221.49,-0.34,-0.155
221.5,-0.335,-0.16
221.5,-0.335,-0.145
221.5,-0.34,-0.16
221.51,-0.345,-0.17
221.51,-0.35,-0.16
221.51,-0.345,-0.17
221.51,-0.33,-0.17
221.52,-0.34,-0.165
221.52,-0.345,-0.175
221.52,-0.36,-0.18
221.52,-0.35,-0.175
221.53,-0.345,-0.175
221.53,-0.335,-0.16
221.53,-0.335,-0.155
221.54,-0.345,-0.175
221.54,-0.355,-0.175
221.54,-0.355,-0.16
221.54,-0.35,-0.165
221.55,-0.345,-0.165
221.55,-0.335,-0.17
221.55,-0.35,-0.175
221.56,-0.355,-0.19
221.56,-0.35,-0.165
221.56,-0.345,-0.16
221.56,-0.32,-0.17
221.57,-0.335,-0.165
221.57,-0.345,-0.18
221.57,-0.34,-0.19
221.57,-0.355,-0.185
221.58,-0.34,-0.165
221.58,-0.33,-0.16
221.58,-0.32,-0.165
221.59,-0.335,-0.17
221.59,-0.345,-0.18
221.59,-0.34,-0.16
221.59,-0.345,-0.165
221.6,-0.335,-0.17
221.6,-0.325,-0.17
221.6,-0.335,-0.175
221.61,-0.34,-0.18
221.61,-0.335,-0.175
221.61,-0.325,-0.17
221.61,-0.325,-0.165
221.62,-0.315,-0.165
221.62,-0.32,-0.175
221.62,-0.325,-0.18
221.62,-0.325,-0.165
221.63,-0.325,-0.17
221.63,-0.315,-0.15
221.63,-0.31,-0.17
221.64,-0.325,-0.17
221.64,-0.32,-0.18
221.64,-0.315,-0.165
221.64,-0.3,-0.14
221.65,-0.295,-0.12
221.65,-0.29,-0.09
221.65,-0.285,-0.03
221.66,-0.27,0.175
221.66,-0.245,0.59
221.66,-0.2,0.97
221.66,-0.13,0.965
221.67,0.015,0.645
221.67,0.33,0.39
221.67,0.735,0.29
221.67,0.915,0.265
221.68,0.72,0.25
221.68,0.365,0.195
221.68,0.155,0.16
221.69,0.105,0.115
221.69,0.13,0.03
221.69,0.15,-0.06
221.69,0.155,-0.185
221.7,0.17,-0.365
221.7,0.175,-0.58
221.7,0.19,-0.82
221.71,0.195,-1.08
221.71,0.205,-1.32
221.71,0.22,-1.58
221.71,0.23,-1.81
221.72,0.21,-2.025
221.72,0.18,-2.195
221.72,0.185,-2.35
221.73,0.185,-2.475
221.73,0.195,-2.56
221.73,0.21,-2.635
221.73,0.175,-2.745
221.74,0.18,-2.845
221.74,0.165,-2.95
221.74,0.13,-3.01
221.74,0.075,-3.03
221.75,0.015,-3.055
221.75,-0.045,-3.095
221.75,-0.09,-3.11
221.76,-0.14,-3.135
221.76,-0.215,-3.15
221.76,-0.305,-3.14
221.76,-0.37,-3.155
221.77,-0.4,-3.145
221.77,-0.4,-3.155
221.77,-0.385,-3.165
221.77,-0.365,-3.14
221.78,-0.35,-3.125
221.78,-0.345,-3.1
221.78,-0.375,-3.055
221.79,-0.41,-3.015
221.79,-0.42,-2.945
221.79,-0.435,-2.84
221.79,-0.45,-2.69
221.8,-0.44,-2.555
221.8,-0.43,-2.41
221.8,-0.42,-2.22
221.81,-0.415,-2
221.81,-0.41,-1.755
221.81,-0.4,-1.52
221.81,-0.405,-1.3
221.82,-0.42,-1.09
221.82,-0.405,-0.86
221.82,-0.41,-0.655
221.82,-0.425,-0.425
221.83,-0.42,-0.22
221.83,-0.425,-0.055
221.83,-0.44,0.1
221.84,-0.455,0.235
221.84,-0.465,0.37
221.84,-0.46,0.505
221.84,-0.425,0.615
221.85,-0.415,0.705
221.85,-0.425,0.75
221.85,-0.42,0.78
221.86,-0.42,0.83
221.86,-0.43,0.87
221.86,-0.395,0.92
221.86,-0.385,0.955
221.87,-0.39,0.99
221.87,-0.405,1.01
221.87,-0.4,1.04
221.88,-0.42,1.08
221.88,-0.4,1.105
221.88,-0.39,1.145
221.88,-0.4,1.18
221.89,-0.39,1.195
221.89,-0.4,1.23
221.89,-0.41,1.255
221.89,-0.395,1.3
221.9,-0.395,1.32
221.9,-0.39,1.35
221.9,-0.395,1.375
221.91,-0.4,1.415
221.91,-0.41,1.445
221.91,-0.4,1.49
221.91,-0.385,1.525
221.92,-0.39,1.575
221.92,-0.395,1.58
221.92,-0.395,1.625
221.92,-0.39,1.66
221.93,-0.39,1.715
221.93,-0.375,1.75
221.93,-0.37,1.785
221.94,-0.375,1.795
221.94,-0.385,1.83
221.94,-0.375,1.86
221.94,-0.36,1.91
221.95,-0.355,1.935
221.95,-0.355,1.965
221.95,-0.35,1.97
221.96,-0.355,1.995
221.96,-0.34,2.03
221.96,-0.335,2.06
221.96,-0.325,2.07
221.97,-0.315,2.075
221.97,-0.31,2.075
221.97,-0.3,2.08
221.98,-0.295,2.07
221.98,-0.285,2.08
221.98,-0.26,2.065
221.98,-0.25,2.045
221.99,-0.245,2.02
221.99,-0.24,1.97
221.99,-0.24,1.955
221.99,-0.215,1.925
222,-0.195,1.89
222,-0.185,1.835
222,-0.185,1.765
222.01,-0.195,1.705
222.01,-0.185,1.655
222.01,-0.165,1.595
222.01,-0.15,1.525
222.02,-0.135,1.46
222.02,-0.14,1.385
222.02,-0.145,1.305
222.02,-0.14,1.245
222.03,-0.13,1.185
222.03,-0.115,1.12
222.03,-0.115,1.05
222.04,-0.12,0.975
222.04,-0.135,0.9
222.04,-0.14,0.835
222.04,-0.13,0.785
222.05,-0.115,0.73
222.05,-0.125,0.655
222.05,-0.135,0.6
222.06,-0.145,0.55
222.06,-0.16,0.5
222.06,-0.14,0.46
222.06,-0.13,0.415
222.07,-0.15,0.36
222.07,-0.165,0.335
222.07,-0.175,0.285
222.07,-0.195,0.26
222.08,-0.175,0.25
222.08,-0.18,0.215
222.08,-0.18,0.205
222.09,-0.18,0.16
222.09,-0.2,0.14
222.09,-0.205,0.125
222.09,-0.2,0.125
222.1,-0.19,0.11
222.1,-0.19,0.09
222.1,-0.21,0.075
222.11,-0.215,0.06
222.11,-0.22,0.07
222.11,-0.205,0.06
222.11,-0.2,0.06
222.12,-0.2,0.065
222.12,-0.215,0.05
222.12,-0.215,0.035
222.12,-0.225,0.04
222.13,-0.215,0.045
222.13,-0.21,0.04
222.13,-0.215,0.05
222.14,-0.225,0.035
222.14,-0.235,0.025
222.14,-0.24,0.025
222.14,-0.225,0.035
222.15,-0.22,0.04
222.15,-0.225,0.035
222.15,-0.235,0.02
222.16,-0.24,0.025
222.16,-0.245,0.03
222.16,-0.23,0.035
222.16,-0.23,0.04
222.17,-0.235,0.03
222.17,-0.23,0.015
222.17,-0.24,0.01
222.17,-0.24,0.01
222.18,-0.225,0.02
222.18,-0.23,0.03
222.18,-0.235,0.015
222.19,-0.24,-0.005
222.19,-0.255,-0.005
222.19,-0.255,-0.005
222.19,-0.245,0
222.2,-0.245,-0.005
222.2,-0.245,0
222.2,-0.255,-0.015
222.21,-0.26,-0.02
222.21,-0.275,-0.015
222.21,-0.26,-0.01
222.21,-0.25,-0.005
222.22,-0.25,0
222.22,-0.27,-0.01
222.22,-0.27,-0.025
222.23,-0.27,-0.005
222.23,-0.27,0
222.23,-0.26,-0.01
222.23,-0.26,-0.01
222.24,-0.275,-0.02
222.24,-0.285,-0.02
222.24,-0.295,-0.02
222.24,-0.285,-0.02
222.25,-0.27,-0.02
222.25,-0.285,-0.03
222.25,-0.265,-0.03
222.26,-0.275,-0.045
222.26,-0.29,-0.055
222.26,-0.255,-0.055
222.26,-0.255,-0.065
222.27,-0.275,-0.08
222.27,-0.275,-0.105
222.27,-0.27,-0.12
222.27,-0.27,-0.13
222.28,-0.255,-0.135
222.28,-0.24,-0.15
222.28,-0.25,-0.15
222.29,-0.26,-0.165
222.29,-0.265,-0.19
222.29,-0.28,-0.17
222.29,-0.275,-0.18
222.3,-0.27,-0.18
222.3,-0.27,-0.195
222.3,-0.27,-0.205
222.31,-0.275,-0.21
222.31,-0.285,-0.185
222.31,-0.275,-0.17
222.31,-0.27,-0.165
222.32,-0.275,-0.175
222.32,-0.29,-0.19
222.32,-0.315,-0.2
222.32,-0.325,-0.195
222.33,-0.32,-0.19
222.33,-0.31,-0.185
222.33,-0.31,-0.185
222.34,-0.31,-0.21
222.34,-0.32,-0.205
222.34,-0.33,-0.205
222.34,-0.325,-0.2
222.35,-0.315,-0.19
222.35,-0.325,-0.19
222.35,-0.32,-0.2
222.36,-0.34,-0.21
222.36,-0.35,-0.195
222.36,-0.33,-0.195
222.36,-0.315,-0.19
222.37,-0.325,-0.195
222.37,-0.32,-0.205
222.37,-0.34,-0.21
222.38,-0.345,-0.21
222.38,-0.33,-0.21
222.38,-0.315,-0.195
222.38,-0.32,-0.2
222.39,-0.33,-0.215
222.39,-0.33,-0.205
222.39,-0.33,-0.205
222.39,-0.32,-0.2
222.4,-0.315,-0.185
222.4,-0.315,-0.195
222.4,-0.33,-0.2
222.41,-0.335,-0.22
222.41,-0.335,-0.205
222.41,-0.315,-0.2
222.41,-0.305,-0.185
222.42,-0.305,-0.205
222.42,-0.32,-0.21
222.42,-0.33,-0.215
222.42,-0.33,-0.205
222.43,-0.31,-0.185
222.43,-0.295,-0.19
222.43,-0.3,-0.195
222.44,-0.3,-0.205
222.44,-0.305,-0.205
222.44,-0.31,-0.2
222.44,-0.3,-0.175
222.45,-0.285,-0.175
222.45,-0.29,-0.17
222.45,-0.285,-0.18
222.46,-0.285,-0.165
222.46,-0.27,-0.105
222.46,-0.25,-0.01
222.46,-0.215,0.245
222.47,-0.2,0.68
222.47,-0.16,0.95
222.47,-0.07,0.835
222.48,0.13,0.515
222.48,0.52,0.33
222.48,0.895,0.275
222.48,0.94,0.24
222.49,0.66,0.17
222.49,0.32,0.13
222.49,0.175,0.12
222.49,0.165,0.095
222.5,0.19,0.015
222.5,0.19,-0.065
222.5,0.205,-0.23
222.51,0.21,-0.415
222.51,0.225,-0.63
222.51,0.255,-0.855
222.51,0.29,-1.095
222.52,0.29,-1.345
222.52,0.295,-1.605
222.52,0.3,-1.88
222.52,0.295,-2.1
222.53,0.31,-2.26
222.53,0.33,-2.395
222.53,0.33,-2.485
222.54,0.335,-2.595
222.54,0.325,-2.665
222.54,0.32,-2.745
222.54,0.325,-2.81
222.55,0.335,-2.9
222.55,0.295,-2.975
222.55,0.23,-3.03
222.56,0.16,-3.06
222.56,0.11,-3.075
222.56,0.08,-3.08
222.56,0.025,-3.11
222.57,-0.06,-3.13
222.57,-0.17,-3.155
222.57,-0.265,-3.16
222.57,-0.295,-3.165
222.58,-0.285,-3.145
222.58,-0.255,-3.145
222.58,-0.245,-3.135
222.59,-0.25,-3.13
222.59,-0.26,-3.105
222.59,-0.27,-3.055
222.59,-0.315,-2.975
222.6,-0.32,-2.905
222.6,-0.355,-2.8
222.6,-0.39,-2.695
222.61,-0.425,-2.585
222.61,-0.425,-2.42
222.61,-0.41,-2.245
222.61,-0.405,-2.04
222.62,-0.415,-1.805
222.62,-0.44,-1.585
222.62,-0.44,-1.355
222.62,-0.435,-1.125
222.63,-0.42,-0.89
222.63,-0.41,-0.655
222.63,-0.39,-0.425
222.64,-0.415,-0.24
222.64,-0.435,-0.055
222.64,-0.445,0.115
222.64,-0.45,0.275
222.65,-0.44,0.42
222.65,-0.44,0.55
222.65,-0.435,0.655
222.66,-0.43,0.71
222.66,-0.435,0.785
222.66,-0.405,0.835
222.66,-0.4,0.895
222.67,-0.405,0.925
222.67,-0.405,0.96
222.67,-0.41,0.99
222.67,-0.395,1.035
222.68,-0.4,1.09
222.68,-0.395,1.125
222.68,-0.395,1.17
222.69,-0.405,1.195
222.69,-0.415,1.235
222.69,-0.415,1.28
222.69,-0.395,1.325
222.7,-0.39,1.355
222.7,-0.385,1.395
222.7,-0.4,1.43
222.71,-0.405,1.48
222.71,-0.4,1.51
222.71,-0.4,1.565
222.71,-0.405,1.605
222.72,-0.395,1.645
222.72,-0.405,1.68
222.72,-0.415,1.72
222.73,-0.415,1.755
222.73,-0.395,1.8
222.73,-0.39,1.85
222.73,-0.4,1.885
222.74,-0.39,1.915
222.74,-0.4,1.945
222.74,-0.395,1.975
222.74,-0.385,2.015
222.75,-0.37,2.055
222.75,-0.365,2.065
222.75,-0.365,2.085
222.76,-0.365,2.095
222.76,-0.36,2.11
222.76,-0.34,2.14
222.76,-0.32,2.15
222.77,-0.33,2.14
222.77,-0.32,2.125
222.77,-0.315,2.11
222.77,-0.305,2.1
222.78,-0.295,2.095
222.78,-0.28,2.05
222.78,-0.27,2.025
222.79,-0.26,1.985
222.79,-0.255,1.935
222.79,-0.245,1.89
222.79,-0.235,1.85
222.8,-0.195,1.795
222.8,-0.205,1.73
222.8,-0.22,1.67
222.81,-0.225,1.6
222.81,-0.225,1.53
222.81,-0.215,1.475
222.81,-0.205,1.405
222.82,-0.215,1.33
222.82,-0.19,1.245
222.82,-0.2,1.175
222.82,-0.18,1.1
222.83,-0.19,1.05
222.83,-0.17,0.975
222.83,-0.185,0.895
222.84,-0.18,0.82
222.84,-0.185,0.76
222.84,-0.185,0.695
222.84,-0.175,0.65
222.85,-0.175,0.59
222.85,-0.18,0.525
222.85,-0.195,0.485
222.86,-0.19,0.425
222.86,-0.205,0.39
222.86,-0.19,0.36
222.86,-0.185,0.325
222.87,-0.2,0.285
222.87,-0.205,0.255
222.87,-0.2,0.21
222.88,-0.22,0.19
222.88,-0.21,0.165
222.88,-0.205,0.155
222.88,-0.2,0.125
222.89,-0.22,0.105
222.89,-0.225,0.075
222.89,-0.235,0.075
222.89,-0.23,0.065
222.9,-0.215,0.06
222.9,-0.23,0.045
222.9,-0.235,0.03
222.91,-0.245,0.015
222.91,-0.25,0.015
222.91,-0.245,0.02
222.91,-0.245,0.02
222.92,-0.235,0
222.92,-0.235,-0.005
222.92,-0.235,-0.01
222.92,-0.24,-0.005
222.93,-0.225,0
222.93,-0.215,0
222.93,-0.22,-0.02
222.94,-0.23,-0.015
222.94,-0.24,-0.025
222.94,-0.245,-0.025
222.94,-0.23,-0.015
222.95,-0.225,-0.02
222.95,-0.22,-0.015
222.95,-0.22,-0.025
222.96,-0.235,-0.025
222.96,-0.24,-0.015
222.96,-0.23,-0.005
222.96,-0.24,-0.005
222.97,-0.23,-0.005
222.97,-0.245,-0.02
222.97,-0.235,-0.01
222.98,-0.24,-0.015
222.98,-0.23,0
222.98,-0.215,0
222.98,-0.23,-0.01
222.99,-0.225,-0.02
222.99,-0.245,-0.025
222.99,-0.255,-0.02
222.99,-0.235,-0.01
223,-0.235,-0.01
223,-0.24,-0.025
223,-0.24,-0.025
223.01,-0.265,-0.035
223.01,-0.255,-0.035
223.01,-0.245,-0.025
223.01,-0.23,-0.015
223.02,-0.235,-0.04
223.02,-0.25,-0.05
223.02,-0.255,-0.06
223.02,-0.275,-0.055
223.03,-0.255,-0.05
223.03,-0.25,-0.045
223.03,-0.265,-0.075
223.04,-0.29,-0.075
223.04,-0.29,-0.085
223.04,-0.285,-0.07
223.04,-0.285,-0.06
223.05,-0.275,-0.055
223.05,-0.285,-0.07
223.05,-0.285,-0.085
223.06,-0.29,-0.09
223.06,-0.29,-0.075
223.06,-0.28,-0.075
223.06,-0.27,-0.075
223.07,-0.275,-0.08
223.07,-0.27,-0.075
223.07,-0.27,-0.075
223.07,-0.27,-0.07
223.08,-0.255,-0.055
223.08,-0.255,-0.05
223.08,-0.265,-0.065
223.09,-0.29,-0.07
223.09,-0.28,-0.09
223.09,-0.285,-0.085
223.09,-0.265,-0.09
223.1,-0.265,-0.1
223.1,-0.255,-0.125
223.1,-0.25,-0.15
223.11,-0.26,-0.15
223.11,-0.255,-0.145
223.11,-0.235,-0.135
223.11,-0.225,-0.15
223.12,-0.225,-0.16
223.12,-0.23,-0.19
223.12,-0.245,-0.19
223.12,-0.255,-0.21
223.13,-0.255,-0.215
223.13,-0.245,-0.215
223.13,-0.25,-0.24
223.14,-0.24,-0.24
223.14,-0.25,-0.25
223.14,-0.255,-0.24
223.14,-0.255,-0.215
223.15,-0.24,-0.205
223.15,-0.25,-0.19
223.15,-0.26,-0.21
223.16,-0.255,-0.21
223.16,-0.27,-0.215
223.16,-0.28,-0.2
223.16,-0.28,-0.2
223.17,-0.285,-0.2
223.17,-0.285,-0.215
223.17,-0.305,-0.22
223.17,-0.305,-0.21
223.18,-0.29,-0.205
223.18,-0.255,-0.2
223.18,-0.275,-0.2
223.19,-0.28,-0.205
223.19,-0.29,-0.21
223.19,-0.295,-0.2
223.19,-0.27,-0.185
223.2,-0.255,-0.19
223.2,-0.255,-0.19
223.2,-0.26,-0.215
223.21,-0.26,-0.215
223.21,-0.265,-0.21
223.21,-0.265,-0.195
223.21,-0.255,-0.2
223.22,-0.265,-0.205
223.22,-0.28,-0.22
223.22,-0.285,-0.22
223.23,-0.285,-0.2
223.23,-0.27,-0.185
223.23,-0.255,-0.2
223.23,-0.255,-0.2
223.24,-0.275,-0.205
223.24,-0.275,-0.205
223.24,-0.27,-0.2
223.24,-0.25,-0.175
223.25,-0.235,-0.155
223.25,-0.235,-0.15
223.25,-0.23,-0.12
223.26,-0.225,-0.005
223.26,-0.215,0.27
223.26,-0.175,0.675
223.26,-0.125,0.915
223.27,-0.06,0.805
223.27,0.07,0.53
223.27,0.36,0.345
223.27,0.725,0.275
223.28,0.9,0.255
223.28,0.74,0.2
223.28,0.405,0.165
223.29,0.2,0.13
223.29,0.165,0.095
223.29,0.175,0.065
223.29,0.21,-0.005
223.3,0.22,-0.13
223.3,0.23,-0.285
223.3,0.245,-0.49
223.31,0.26,-0.715
223.31,0.29,-0.925
223.31,0.295,-1.125
223.31,0.325,-1.375
223.32,0.335,-1.635
223.32,0.33,-1.845
223.32,0.325,-2.03
223.32,0.355,-2.17
223.33,0.395,-2.3
223.33,0.45,-2.405
223.33,0.455,-2.495
223.34,0.46,-2.585
223.34,0.445,-2.69
223.34,0.445,-2.78
223.34,0.435,-2.87
223.35,0.415,-2.955
223.35,0.35,-3.015
223.35,0.275,-3.055
223.36,0.205,-3.085
223.36,0.155,-3.105
223.36,0.1,-3.12
223.36,0.025,-3.145
223.37,-0.09,-3.155
223.37,-0.165,-3.165
223.37,-0.205,-3.18
223.38,-0.21,-3.165
223.38,-0.195,-3.145
223.38,-0.195,-3.135
223.38,-0.215,-3.12
223.39,-0.235,-3.1
223.39,-0.265,-3.03
223.39,-0.3,-2.945
223.39,-0.34,-2.83
223.4,-0.35,-2.715
223.4,-0.37,-2.59
223.4,-0.385,-2.455
223.41,-0.39,-2.305
223.41,-0.38,-2.11
223.41,-0.375,-1.885
223.41,-0.37,-1.65
223.42,-0.36,-1.43
223.42,-0.36,-1.21
223.42,-0.345,-0.995
223.42,-0.345,-0.775
223.43,-0.34,-0.55
223.43,-0.35,-0.36
223.43,-0.365,-0.185
223.44,-0.385,-0.04
223.44,-0.4,0.085
223.44,-0.415,0.24
223.44,-0.39,0.385
223.45,-0.37,0.495
223.45,-0.355,0.605
223.45,-0.35,0.675
223.46,-0.37,0.73
223.46,-0.37,0.79
223.46,-0.36,0.845
223.46,-0.355,0.87
223.47,-0.36,0.93
223.47,-0.355,0.935
223.47,-0.35,0.975
223.48,-0.34,1.025
223.48,-0.32,1.075
223.48,-0.32,1.11
223.48,-0.315,1.14
223.49,-0.325,1.165
223.49,-0.345,1.2
223.49,-0.325,1.24
223.49,-0.325,1.29
223.5,-0.31,1.325
223.5,-0.32,1.355
223.5,-0.335,1.395
223.51,-0.355,1.43
223.51,-0.365,1.47
223.51,-0.345,1.52
223.51,-0.34,1.555
223.52,-0.34,1.58
223.52,-0.33,1.615
223.52,-0.335,1.66
223.52,-0.325,1.715
223.53,-0.3,1.765
223.53,-0.305,1.785
223.53,-0.3,1.82
223.54,-0.31,1.84
223.54,-0.305,1.885
223.54,-0.305,1.93
223.54,-0.285,1.97
223.55,-0.28,1.99
223.55,-0.285,2.01
223.55,-0.29,2.035
223.56,-0.28,2.045
223.56,-0.255,2.08
223.56,-0.23,2.085
223.56,-0.22,2.09
223.57,-0.22,2.085
223.57,-0.22,2.085
223.57,-0.24,2.08
223.57,-0.23,2.07
223.58,-0.225,2.06
223.58,-0.21,2.035
223.58,-0.18,2.005
223.59,-0.175,1.965
223.59,-0.17,1.93
223.59,-0.18,1.885
223.59,-0.17,1.86
223.6,-0.15,1.805
223.6,-0.12,1.745
223.6,-0.125,1.68
223.61,-0.11,1.625
223.61,-0.115,1.565
223.61,-0.11,1.51
223.61,-0.085,1.45
223.62,-0.09,1.38
223.62,-0.085,1.295
223.62,-0.075,1.22
223.62,-0.09,1.155
223.63,-0.065,1.095
223.63,-0.07,1.04
223.63,-0.08,0.96
223.64,-0.095,0.905
223.64,-0.095,0.835
223.64,-0.09,0.775
223.64,-0.065,0.725
223.65,-0.06,0.66
223.65,-0.08,0.6
223.65,-0.095,0.545
223.66,-0.12,0.49
223.66,-0.125,0.455
223.66,-0.12,0.43
223.66,-0.11,0.38
223.67,-0.115,0.345
223.67,-0.12,0.305
223.67,-0.135,0.26
223.67,-0.135,0.23
223.68,-0.14,0.22
223.68,-0.13,0.185
223.68,-0.135,0.165
223.69,-0.15,0.14
223.69,-0.165,0.105
223.69,-0.17,0.1
223.69,-0.16,0.1
223.7,-0.165,0.08
223.7,-0.15,0.07
223.7,-0.16,0.045
223.71,-0.17,0.025
223.71,-0.15,0.025
223.71,-0.15,0.02
223.71,-0.145,0.02
223.72,-0.145,0.015
223.72,-0.16,-0.01
223.72,-0.165,-0.03
223.73,-0.175,-0.02
223.73,-0.17,-0.02
223.73,-0.165,-0.025
223.73,-0.17,-0.025
223.74,-0.175,-0.03
223.74,-0.18,-0.035
223.74,-0.17,-0.035
223.74,-0.155,-0.02
223.75,-0.15,-0.015
223.75,-0.16,-0.03
223.75,-0.16,-0.045
223.76,-0.175,-0.05
223.76,-0.17,-0.04
223.76,-0.17,-0.04
223.76,-0.165,-0.035
223.77,-0.165,-0.04
223.77,-0.175,-0.05
223.77,-0.19,-0.055
223.77,-0.195,-0.045
223.78,-0.18,-0.035
223.78,-0.185,-0.04
223.78,-0.175,-0.035
223.79,-0.195,-0.045
223.79,-0.195,-0.045
223.79,-0.205,-0.045
223.79,-0.195,-0.03
223.8,-0.18,-0.035
223.8,-0.195,-0.04
223.8,-0.2,-0.045
223.81,-0.205,-0.05
223.81,-0.21,-0.045
223.81,-0.195,-0.035
223.81,-0.2,-0.035
223.82,-0.21,-0.04
223.82,-0.215,-0.05
223.82,-0.225,-0.065
223.82,-0.22,-0.055
223.83,-0.22,-0.045
223.83,-0.205,-0.045
223.83,-0.205,-0.06
223.84,-0.21,-0.07
223.84,-0.205,-0.08
223.84,-0.22,-0.07
223.84,-0.22,-0.06
223.85,-0.2,-0.07
223.85,-0.215,-0.085
223.85,-0.225,-0.09
223.86,-0.245,-0.1
223.86,-0.23,-0.105
223.86,-0.235,-0.09
223.86,-0.215,-0.09
223.87,-0.225,-0.11
223.87,-0.235,-0.12
223.87,-0.245,-0.13
223.88,-0.245,-0.125
223.88,-0.23,-0.105
223.88,-0.24,-0.11
223.88,-0.24,-0.12
223.89,-0.245,-0.125
223.89,-0.25,-0.135
223.89,-0.24,-0.135
223.89,-0.24,-0.125
223.9,-0.235,-0.13
223.9,-0.24,-0.14
223.9,-0.24,-0.145
223.91,-0.26,-0.14
223.91,-0.265,-0.145
223.91,-0.255,-0.14
223.91,-0.25,-0.13
223.92,-0.255,-0.145
223.92,-0.275,-0.15
223.92,-0.285,-0.155
223.92,-0.265,-0.14
223.93,-0.255,-0.14
223.93,-0.245,-0.125
223.93,-0.255,-0.145
223.94,-0.26,-0.135
223.94,-0.275,-0.145
223.94,-0.25,-0.12
223.94,-0.245,-0.115
223.95,-0.26,-0.11
223.95,-0.24,-0.095
223.95,-0.26,-0.11
223.96,-0.28,-0.125
223.96,-0.26,-0.125
223.96,-0.245,-0.115
223.96,-0.245,-0.125
223.97,-0.245,-0.15
223.97,-0.245,-0.17
223.97,-0.235,-0.185
223.98,-0.225,-0.16
223.98,-0.22,-0.155
223.98,-0.2,-0.165
223.98,-0.195,-0.18
223.99,-0.215,-0.195
223.99,-0.215,-0.21
223.99,-0.23,-0.22
223.99,-0.23,-0.21
224,-0.22,-0.23
224,-0.225,-0.24
224,-0.23,-0.255
224.01,-0.235,-0.25
224.01,-0.235,-0.26
224.01,-0.235,-0.235
224.01,-0.23,-0.225
224.02,-0.23,-0.235
224.02,-0.225,-0.225
224.02,-0.245,-0.21
224.02,-0.245,-0.2
224.03,-0.25,-0.19
224.03,-0.25,-0.195
224.03,-0.26,-0.2
224.04,-0.28,-0.205
224.04,-0.285,-0.215
224.04,-0.285,-0.215
224.04,-0.275,-0.19
224.05,-0.25,-0.2
224.05,-0.26,-0.19
224.05,-0.26,-0.2
224.06,-0.27,-0.205
224.06,-0.265,-0.195
224.06,-0.26,-0.19
224.06,-0.25,-0.19
224.07,-0.245,-0.185
224.07,-0.25,-0.18
224.07,-0.26,-0.175
224.07,-0.25,-0.15
224.08,-0.24,-0.105
224.08,-0.215,-0.015
224.08,-0.205,0.205
224.09,-0.195,0.56
224.09,-0.16,0.86
224.09,-0.11,0.835
224.09,-0.005,0.595
224.1,0.225,0.38
224.1,0.585,0.31
224.1,0.835,0.27
224.11,0.74,0.22
224.11,0.46,0.21
224.11,0.22,0.195
224.11,0.175,0.18
224.12,0.175,0.145
224.12,0.19,0.08
224.12,0.19,0.005
224.12,0.22,-0.1
224.13,0.245,-0.225
224.13,0.265,-0.405
224.13,0.295,-0.61
224.14,0.31,-0.805
224.14,0.32,-0.995
224.14,0.34,-1.19
224.14,0.36,-1.39
224.15,0.375,-1.58
224.15,0.375,-1.75
224.15,0.375,-1.89
224.16,0.38,-2.015
224.16,0.415,-2.115
224.16,0.445,-2.19
224.16,0.46,-2.3
224.17,0.455,-2.42
224.17,0.445,-2.54
224.17,0.435,-2.68
224.17,0.415,-2.78
224.18,0.385,-2.84
224.18,0.325,-2.89
224.18,0.285,-2.945
224.19,0.24,-2.995
224.19,0.165,-3.045
224.19,0.09,-3.06
224.19,0.005,-3.075
224.2,-0.08,-3.09
224.2,-0.14,-3.105
224.2,-0.15,-3.125
224.21,-0.155,-3.125
224.21,-0.135,-3.11
224.21,-0.135,-3.1
224.21,-0.15,-3.055
224.22,-0.185,-3.025
224.22,-0.22,-2.97
224.22,-0.28,-2.895
224.23,-0.315,-2.79
224.23,-0.33,-2.68
224.23,-0.335,-2.55
224.23,-0.33,-2.415
224.24,-0.34,-2.265
224.24,-0.35,-2.06
224.24,-0.35,-1.82
224.24,-0.345,-1.58
224.25,-0.345,-1.35
224.25,-0.355,-1.14
224.25,-0.375,-0.935
224.26,-0.39,-0.73
224.26,-0.395,-0.52
224.26,-0.38,-0.32
224.26,-0.4,-0.135
224.27,-0.41,0.02
224.27,-0.425,0.15
224.27,-0.44,0.29
224.27,-0.44,0.445
224.28,-0.42,0.56
224.28,-0.4,0.64
224.28,-0.395,0.715
224.29,-0.4,0.755
224.29,-0.41,0.805
224.29,-0.4,0.855
224.29,-0.395,0.89
224.3,-0.375,0.915
224.3,-0.37,0.965
224.3,-0.38,0.975
224.31,-0.395,1.02
224.31,-0.395,1.075
224.31,-0.385,1.11
224.31,-0.37,1.14
224.32,-0.36,1.17
224.32,-0.37,1.2
224.32,-0.385,1.235
224.32,-0.385,1.285
224.33,-0.375,1.335
224.33,-0.36,1.365
224.33,-0.37,1.395
224.34,-0.375,1.42
224.34,-0.39,1.445
224.34,-0.39,1.48
224.34,-0.375,1.53
224.35,-0.375,1.575
224.35,-0.36,1.585
224.35,-0.365,1.63
224.36,-0.37,1.66
224.36,-0.375,1.7
224.36,-0.37,1.735
224.36,-0.36,1.78
224.37,-0.355,1.81
224.37,-0.355,1.835
224.37,-0.375,1.86
224.38,-0.36,1.905
224.38,-0.335,1.95
224.38,-0.325,1.97
224.38,-0.33,1.99
224.39,-0.325,2
224.39,-0.335,2.02
224.39,-0.34,2.045
224.39,-0.315,2.065
224.4,-0.295,2.075
224.4,-0.285,2.07
224.4,-0.295,2.065
224.41,-0.29,2.07
224.41,-0.285,2.055
224.41,-0.255,2.04
224.41,-0.245,2.005
224.42,-0.25,1.99
224.42,-0.235,1.955
224.42,-0.245,1.91
224.42,-0.23,1.89
224.43,-0.215,1.85
224.43,-0.2,1.8
224.43,-0.195,1.74
224.44,-0.195,1.675
224.44,-0.2,1.61
224.44,-0.18,1.555
224.44,-0.155,1.5
224.45,-0.145,1.435
224.45,-0.145,1.36
224.45,-0.16,1.28
224.46,-0.16,1.21
224.46,-0.155,1.135
224.46,-0.14,1.08
224.46,-0.145,1.025
224.47,-0.155,0.945
224.47,-0.15,0.885
224.47,-0.18,0.81
224.48,-0.16,0.76
224.48,-0.155,0.705
224.48,-0.15,0.665
224.48,-0.15,0.615
224.49,-0.17,0.55
224.49,-0.185,0.485
224.49,-0.175,0.46
224.49,-0.175,0.425
224.5,-0.18,0.385
224.5,-0.175,0.35
224.5,-0.19,0.295
224.51,-0.205,0.265
224.51,-0.2,0.24
224.51,-0.195,0.23
224.51,-0.195,0.195
224.52,-0.2,0.165
224.52,-0.22,0.145
224.52,-0.225,0.12
224.52,-0.225,0.11
224.53,-0.225,0.095
224.53,-0.22,0.085
224.53,-0.225,0.065
224.54,-0.235,0.035
224.54,-0.235,0.03
224.54,-0.24,0.03
224.54,-0.225,0.04
224.55,-0.23,0.015
224.55,-0.23,0.005
224.55,-0.235,-0.01
224.56,-0.24,-0.01
224.56,-0.24,-0.01
224.56,-0.235,0
224.56,-0.235,-0.005
224.57,-0.235,-0.015
224.57,-0.235,-0.03
224.57,-0.245,-0.03
224.57,-0.245,-0.02
224.58,-0.235,-0.01
224.58,-0.23,-0.01
224.58,-0.235,-0.02
224.59,-0.245,-0.03
224.59,-0.245,-0.035
224.59,-0.245,-0.025
224.59,-0.24,-0.015
224.6,-0.23,-0.02
224.6,-0.23,-0.02
224.6,-0.25,-0.04
224.61,-0.27,-0.035
224.61,-0.26,-0.025
224.61,-0.24,-0.01
224.61,-0.235,-0.015
224.62,-0.235,-0.015
224.62,-0.235,-0.025
224.62,-0.25,-0.02
224.62,-0.24,-0.01
224.63,-0.24,-0.005
224.63,-0.245,-0.015
224.63,-0.245,-0.015
224.64,-0.25,-0.035
224.64,-0.265,-0.035
224.64,-0.255,-0.025
224.64,-0.25,-0.025
224.65,-0.245,-0.025
224.65,-0.24,-0.03
224.65,-0.265,-0.045
224.66,-0.27,-0.055
224.66,-0.265,-0.05
224.66,-0.28,-0.03
224.66,-0.27,-0.045
224.67,-0.265,-0.05
224.67,-0.28,-0.065
224.67,-0.285,-0.07
224.67,-0.29,-0.06
224.68,-0.28,-0.05
224.68,-0.27,-0.065
224.68,-0.27,-0.065
224.69,-0.28,-0.085
224.69,-0.29,-0.1
224.69,-0.29,-0.095
224.69,-0.29,-0.095
224.7,-0.27,-0.09
224.7,-0.29,-0.1
224.7,-0.295,-0.115
224.71,-0.3,-0.125
224.71,-0.3,-0.12
224.71,-0.305,-0.115
224.71,-0.295,-0.12
224.72,-0.29,-0.13
224.72,-0.305,-0.15
224.72,-0.33,-0.14
224.73,-0.3,-0.14
224.73,-0.3,-0.14
224.73,-0.29,-0.14
224.73,-0.3,-0.145
224.74,-0.31,-0.16
224.74,-0.315,-0.165
224.74,-0.315,-0.165
224.74,-0.31,-0.165
224.75,-0.3,-0.16
224.75,-0.3,-0.165
224.75,-0.31,-0.175
224.76,-0.32,-0.18
224.76,-0.315,-0.17
224.76,-0.31,-0.16
224.76,-0.305,-0.17
224.77,-0.305,-0.18
224.77,-0.315,-0.185
224.77,-0.32,-0.185
224.77,-0.325,-0.17
224.78,-0.325,-0.17
224.78,-0.315,-0.175
224.78,-0.315,-0.175
224.79,-0.325,-0.19
224.79,-0.32,-0.195
224.79,-0.32,-0.185
224.79,-0.32,-0.185
224.8,-0.31,-0.185
224.8,-0.315,-0.19
224.8,-0.325,-0.205
224.81,-0.33,-0.2
224.81,-0.325,-0.2
224.81,-0.32,-0.185
224.81,-0.31,-0.195
224.82,-0.32,-0.2
224.82,-0.325,-0.21
224.82,-0.33,-0.2
224.82,-0.32,-0.205
224.83,-0.325,-0.19
224.83,-0.31,-0.2
224.83,-0.315,-0.2
224.84,-0.32,-0.23
224.84,-0.32,-0.21
224.84,-0.33,-0.205
224.84,-0.325,-0.2
224.85,-0.32,-0.195
224.85,-0.325,-0.215
224.85,-0.33,-0.225
224.86,-0.34,-0.22
224.86,-0.335,-0.21
224.86,-0.325,-0.195
224.86,-0.315,-0.2
224.87,-0.31,-0.205
224.87,-0.315,-0.215
224.87,-0.325,-0.22
224.88,-0.315,-0.215
224.88,-0.32,-0.205
224.88,-0.3,-0.205
224.88,-0.305,-0.215
224.89,-0.31,-0.215
224.89,-0.32,-0.215
224.89,-0.305,-0.205
224.89,-0.295,-0.195
224.9,-0.3,-0.19
224.9,-0.295,-0.19
224.9,-0.305,-0.185
224.91,-0.305,-0.16
224.91,-0.295,-0.1
224.91,-0.27,0.06
224.91,-0.255,0.365
224.92,-0.225,0.76
224.92,-0.19,0.965
224.92,-0.14,0.8
224.92,0.005,0.515
224.93,0.31,0.36
224.93,0.69,0.29
224.93,0.84,0.24
224.94,0.65,0.16
224.94,0.33,0.105
224.94,0.13,0.05
224.94,0.085,-0.04
224.95,0.1,-0.15
224.95,0.115,-0.32
224.95,0.1,-0.485
224.96,0.09,-0.67
224.96,0.08,-0.86
224.96,0.085,-1.06
224.96,0.11,-1.26
224.97,0.12,-1.455
224.97,0.12,-1.62
224.97,0.105,-1.78
224.98,0.105,-1.935
224.98,0.105,-2.075
224.98,0.11,-2.28
224.98,0.115,-2.475
224.99,0.095,-2.64
224.99,0.065,-2.76
224.99,0.06,-2.835
224.99,0.045,-2.91
225,0.02,-2.985
225,-0.04,-3.055
225,-0.12,-3.1
225.01,-0.19,-3.135
225.01,-0.255,-3.135
225.01,-0.31,-3.145
225.01,-0.37,-3.145
225.02,-0.44,-3.17
225.02,-0.515,-3.185
225.02,-0.595,-3.175
225.02,-0.605,-3.18
225.03,-0.575,-3.16
225.03,-0.53,-3.15
225.03,-0.495,-3.14
225.04,-0.47,-3.13
225.04,-0.46,-3.115
225.04,-0.45,-3.065
225.04,-0.44,-2.985
225.05,-0.425,-2.89
225.05,-0.42,-2.77
225.05,-0.43,-2.625
225.06,-0.425,-2.465
225.06,-0.415,-2.255
225.06,-0.385,-2.045
225.06,-0.34,-1.81
225.07,-0.31,-1.585
225.07,-0.29,-1.355
225.07,-0.31,-1.12
225.07,-0.335,-0.895
225.08,-0.33,-0.685
225.08,-0.35,-0.485
225.08,-0.37,-0.305
225.09,-0.395,-0.125
225.09,-0.41,0.05
225.09,-0.42,0.215
225.09,-0.41,0.36
225.1,-0.405,0.455
225.1,-0.4,0.56
225.1,-0.405,0.61
225.11,-0.42,0.665
225.11,-0.415,0.715
225.11,-0.405,0.765
225.11,-0.41,0.81
225.12,-0.41,0.825
225.12,-0.405,0.85
225.12,-0.415,0.88
225.12,-0.42,0.915
225.13,-0.405,0.965
225.13,-0.405,0.99
225.13,-0.405,1.01
225.14,-0.415,1.03
225.14,-0.425,1.04
225.14,-0.42,1.085
225.14,-0.415,1.115
225.15,-0.4,1.135
225.15,-0.405,1.17
225.15,-0.4,1.175
225.16,-0.42,1.195
225.16,-0.405,1.24
225.16,-0.405,1.275
225.16,-0.395,1.29
225.17,-0.39,1.32
225.17,-0.38,1.34
225.17,-0.4,1.375
225.17,-0.41,1.41
225.18,-0.39,1.445
225.18,-0.385,1.48
225.18,-0.38,1.495
225.19,-0.4,1.515
225.19,-0.38,1.55
225.19,-0.38,1.595
225.19,-0.37,1.625
225.2,-0.355,1.655
225.2,-0.355,1.67
225.2,-0.35,1.695
225.21,-0.36,1.73
225.21,-0.35,1.765
225.21,-0.34,1.8
225.21,-0.325,1.835
225.22,-0.31,1.855
225.22,-0.31,1.86
225.22,-0.315,1.875
225.23,-0.31,1.88
225.23,-0.3,1.915
225.23,-0.29,1.91
225.23,-0.275,1.9
225.24,-0.28,1.895
225.24,-0.275,1.885
225.24,-0.265,1.88
225.24,-0.25,1.88
225.25,-0.235,1.865
225.25,-0.23,1.835
225.25,-0.235,1.795
225.26,-0.23,1.76
225.26,-0.225,1.73
225.26,-0.215,1.7
225.26,-0.2,1.645
225.27,-0.19,1.59
225.27,-0.2,1.525
225.27,-0.19,1.475
225.27,-0.18,1.415
225.28,-0.17,1.37
225.28,-0.155,1.295
225.28,-0.155,1.22
225.29,-0.155,1.145
225.29,-0.165,1.075
225.29,-0.16,1.02
225.29,-0.15,0.965
225.3,-0.145,0.895
225.3,-0.15,0.825
225.3,-0.16,0.75
225.31,-0.165,0.705
225.31,-0.17,0.655
225.31,-0.17,0.605
225.31,-0.16,0.55
225.32,-0.17,0.495
225.32,-0.17,0.435
225.32,-0.19,0.39
225.32,-0.195,0.355
225.33,-0.195,0.33
225.33,-0.185,0.295
225.33,-0.2,0.26
225.34,-0.215,0.215
225.34,-0.22,0.185
225.34,-0.21,0.17
225.34,-0.22,0.16
225.35,-0.21,0.125
225.35,-0.205,0.105
225.35,-0.23,0.09
225.36,-0.25,0.08
225.36,-0.24,0.06
225.36,-0.245,0.07
225.36,-0.24,0.055
225.37,-0.24,0.03
225.37,-0.25,0.03
225.37,-0.27,0.02
225.38,-0.26,0.025
225.38,-0.25,0.035
225.38,-0.25,0.02
225.38,-0.255,0.015
225.39,-0.27,0
225.39,-0.28,0
225.39,-0.28,0.005
225.39,-0.26,0.01
225.4,-0.25,0.015
225.4,-0.25,0
225.4,-0.265,-0.005
225.41,-0.265,0.005
225.41,-0.275,-0.005
225.41,-0.26,0.01
225.41,-0.26,0.01
225.42,-0.265,0.005
225.42,-0.28,-0.005
225.42,-0.29,-0.005
225.42,-0.29,0
225.43,-0.275,0.005
225.43,-0.275,0.005
225.43,-0.275,0
225.44,-0.285,-0.01
225.44,-0.285,-0.02
225.44,-0.29,-0.005
225.44,-0.285,-0.005
225.45,-0.28,-0.005
225.45,-0.28,-0.015
225.45,-0.28,-0.03
225.46,-0.29,-0.03
225.46,-0.295,-0.02
225.46,-0.285,-0.015
225.46,-0.28,-0.015
225.47,-0.29,-0.03
225.47,-0.295,-0.04
225.47,-0.31,-0.045
225.48,-0.305,-0.03
225.48,-0.315,-0.03
225.48,-0.295,-0.035
225.48,-0.3,-0.055
225.49,-0.3,-0.06
225.49,-0.325,-0.08
225.49,-0.315,-0.065
225.49,-0.3,-0.055
225.5,-0.305,-0.065
225.5,-0.305,-0.075
225.5,-0.31,-0.09
225.51,-0.32,-0.1
225.51,-0.33,-0.08
225.51,-0.33,-0.08
225.51,-0.32,-0.1
225.52,-0.315,-0.105
225.52,-0.315,-0.12
225.52,-0.33,-0.12
225.52,-0.32,-0.115
225.53,-0.325,-0.1
225.53,-0.3,-0.115
225.53,-0.31,-0.13
225.54,-0.315,-0.145
225.54,-0.33,-0.165
225.54,-0.34,-0.145
225.54,-0.32,-0.14
225.55,-0.315,-0.14
225.55,-0.33,-0.145
225.55,-0.335,-0.165
225.56,-0.355,-0.17
225.56,-0.365,-0.155
225.56,-0.36,-0.15
225.56,-0.34,-0.17
225.57,-0.34,-0.17
225.57,-0.33,-0.17
225.57,-0.34,-0.18
225.57,-0.34,-0.18
225.58,-0.335,-0.165
225.58,-0.335,-0.185
225.58,-0.33,-0.18
225.59,-0.345,-0.195
225.59,-0.355,-0.205
225.59,-0.345,-0.185
225.59,-0.335,-0.18
225.6,-0.325,-0.19
225.6,-0.345,-0.195
225.6,-0.345,-0.21
225.61,-0.35,-0.205
225.61,-0.345,-0.195
225.61,-0.33,-0.19
225.61,-0.315,-0.185
225.62,-0.315,-0.2
225.62,-0.33,-0.215
225.62,-0.345,-0.205
225.62,-0.345,-0.205
225.63,-0.34,-0.2
225.63,-0.335,-0.195
225.63,-0.355,-0.195
225.64,-0.36,-0.22
225.64,-0.385,-0.215
225.64,-0.37,-0.205
225.64,-0.355,-0.2
225.65,-0.345,-0.215
225.65,-0.325,-0.215
225.65,-0.32,-0.21
225.66,-0.33,-0.22
225.66,-0.325,-0.22
225.66,-0.325,-0.205
225.66,-0.315,-0.21
225.67,-0.32,-0.205
225.67,-0.34,-0.225
225.67,-0.345,-0.215
225.67,-0.345,-0.205
225.68,-0.335,-0.195
225.68,-0.325,-0.21
225.68,-0.325,-0.2
225.69,-0.335,-0.215
225.69,-0.34,-0.215
225.69,-0.335,-0.2
225.69,-0.33,-0.195
225.7,-0.31,-0.195
225.7,-0.32,-0.22
225.7,-0.32,-0.22
225.71,-0.335,-0.225
225.71,-0.325,-0.215
225.71,-0.325,-0.21
225.71,-0.31,-0.205
225.72,-0.32,-0.21
225.72,-0.325,-0.21
225.72,-0.33,-0.22
225.73,-0.32,-0.205
225.73,-0.295,-0.195
225.73,-0.29,-0.195
225.73,-0.285,-0.205
225.74,-0.3,-0.205
225.74,-0.315,-0.195
225.74,-0.3,-0.15
225.74,-0.29,-0.11
225.75,-0.285,0.025
225.75,-0.265,0.3
225.75,-0.25,0.69
225.76,-0.225,0.9
225.76,-0.165,0.8
225.76,-0.06,0.535
225.76,0.17,0.35
225.77,0.54,0.265
225.77,0.76,0.2
225.77,0.67,0.13
225.77,0.385,0.075
225.78,0.17,0.01
225.78,0.105,-0.09
225.78,0.105,-0.235
225.79,0.11,-0.41
225.79,0.12,-0.59
225.79,0.12,-0.755
225.79,0.125,-0.965
225.8,0.135,-1.195
225.8,0.135,-1.405
225.8,0.13,-1.59
225.81,0.115,-1.75
225.81,0.09,-1.895
225.81,0.08,-2.03
225.81,0.075,-2.19
225.82,0.09,-2.38
225.82,0.08,-2.57
225.82,0.075,-2.72
225.82,0.055,-2.79
225.83,0.035,-2.85
225.83,0.005,-2.935
225.83,-0.05,-2.99
225.84,-0.105,-3.05
225.84,-0.175,-3.09
225.84,-0.23,-3.095
225.84,-0.275,-3.095
225.85,-0.31,-3.11
225.85,-0.355,-3.13
225.85,-0.445,-3.14
225.86,-0.535,-3.15
225.86,-0.6,-3.15
225.86,-0.635,-3.145
225.86,-0.62,-3.125
225.87,-0.585,-3.13
225.87,-0.545,-3.135
225.87,-0.54,-3.1
225.88,-0.54,-3.07
225.88,-0.535,-3
225.88,-0.53,-2.915
225.88,-0.535,-2.805
225.89,-0.53,-2.675
225.89,-0.52,-2.5
225.89,-0.48,-2.31
225.89,-0.45,-2.075
225.9,-0.41,-1.845
225.9,-0.39,-1.605
225.9,-0.37,-1.375
225.91,-0.37,-1.125
225.91,-0.36,-0.895
225.91,-0.355,-0.68
225.91,-0.345,-0.46
225.92,-0.355,-0.275
225.92,-0.375,-0.1
225.92,-0.4,0.085
225.92,-0.4,0.25
225.93,-0.385,0.4
225.93,-0.36,0.535
225.93,-0.33,0.63
225.94,-0.33,0.69
225.94,-0.35,0.745
225.94,-0.35,0.8
225.94,-0.345,0.85
225.95,-0.34,0.88
225.95,-0.33,0.91
225.95,-0.32,0.935
225.96,-0.31,0.965
225.96,-0.29,0.985
225.96,-0.28,1.02
225.96,-0.265,1.04
225.97,-0.27,1.055
225.97,-0.29,1.05
225.97,-0.295,1.075
225.98,-0.295,1.1
225.98,-0.27,1.125
225.98,-0.25,1.135
225.98,-0.27,1.145
225.99,-0.265,1.155
225.99,-0.255,1.165
225.99,-0.23,1.19
225.99,-0.22,1.225
226,-0.215,1.24
226,-0.23,1.265
226,-0.255,1.275
226.01,-0.27,1.31
226.01,-0.265,1.365
226.01,-0.24,1.395
226.01,-0.225,1.435
226.02,-0.23,1.47
226.02,-0.255,1.48
226.02,-0.28,1.51
226.02,-0.285,1.55
226.03,-0.295,1.575
226.03,-0.295,1.6
226.03,-0.285,1.62
226.04,-0.3,1.64
226.04,-0.295,1.655
226.04,-0.305,1.695
226.04,-0.3,1.72
226.05,-0.285,1.755
226.05,-0.275,1.755
226.05,-0.28,1.765
226.06,-0.29,1.785
226.06,-0.28,1.805
226.06,-0.27,1.825
226.06,-0.25,1.825
226.07,-0.265,1.835
226.07,-0.26,1.82
226.07,-0.275,1.82
226.07,-0.265,1.83
226.08,-0.265,1.83
226.08,-0.245,1.805
226.08,-0.225,1.795
226.09,-0.22,1.755
226.09,-0.215,1.73
226.09,-0.21,1.73
226.09,-0.19,1.695
226.1,-0.2,1.665
226.1,-0.21,1.63
226.1,-0.18,1.575
226.11,-0.185,1.535
226.11,-0.175,1.495
226.11,-0.15,1.455
226.11,-0.14,1.405
226.12,-0.15,1.35
226.12,-0.15,1.285
226.12,-0.15,1.225
226.12,-0.15,1.17
226.13,-0.14,1.12
226.13,-0.13,1.05
226.13,-0.145,0.975
226.14,-0.155,0.905
226.14,-0.145,0.845
226.14,-0.12,0.79
226.14,-0.1,0.745
226.15,-0.115,0.695
226.15,-0.125,0.62
226.15,-0.135,0.565
226.16,-0.13,0.515
226.16,-0.13,0.48
226.16,-0.11,0.445
226.16,-0.115,0.395
226.17,-0.135,0.35
226.17,-0.16,0.31
226.17,-0.175,0.28
226.17,-0.185,0.25
226.18,-0.175,0.235
226.18,-0.18,0.205
226.18,-0.17,0.18
226.19,-0.18,0.15
226.19,-0.195,0.145
226.19,-0.2,0.125
226.19,-0.2,0.12
226.2,-0.205,0.09
226.2,-0.205,0.08
226.2,-0.215,0.05
226.21,-0.225,0.055
226.21,-0.245,0.055
226.21,-0.245,0.07
226.21,-0.225,0.055
226.22,-0.235,0.035
226.22,-0.24,0.035
226.22,-0.25,0.02
226.23,-0.245,0.025
226.23,-0.245,0.02
226.23,-0.23,0.025
226.23,-0.255,0.015
226.24,-0.25,0.005
226.24,-0.26,0.005
226.24,-0.25,0.025
226.24,-0.24,0.025
226.25,-0.24,0.015
226.25,-0.24,0.01
226.25,-0.24,0.02
226.26,-0.265,0.005
226.26,-0.27,0.015
226.26,-0.27,0.03
226.26,-0.255,0.03
226.27,-0.26,0.005
226.27,-0.26,0
226.27,-0.285,0.01
226.27,-0.285,0.015
226.28,-0.285,0.025
226.28,-0.27,0.025
226.28,-0.265,0.015
226.29,-0.27,0
226.29,-0.28,-0.005
226.29,-0.275,0.01
226.29,-0.275,0.01
226.3,-0.275,0.01
226.3,-0.27,0
226.3,-0.295,-0.015
226.31,-0.305,-0.015
226.31,-0.29,-0.005
226.31,-0.29,-0.005
226.31,-0.275,-0.005
226.32,-0.275,-0.005
226.32,-0.295,-0.03
226.32,-0.3,-0.025
226.32,-0.285,-0.025
226.33,-0.29,-0.02
226.33,-0.28,-0.02
226.33,-0.28,-0.035
226.34,-0.295,-0.05
226.34,-0.3,-0.045
226.34,-0.3,-0.05
226.34,-0.3,-0.045
226.35,-0.29,-0.055
226.35,-0.29,-0.065
226.35,-0.295,-0.07
226.36,-0.3,-0.08
226.36,-0.295,-0.07
226.36,-0.285,-0.065
226.36,-0.285,-0.075
226.37,-0.285,-0.09
226.37,-0.3,-0.095
226.37,-0.315,-0.1
226.38,-0.31,-0.105
226.38,-0.305,-0.095
226.38,-0.295,-0.105
226.38,-0.3,-0.11
226.39,-0.31,-0.13
226.39,-0.32,-0.13
226.39,-0.32,-0.125
226.39,-0.315,-0.105
226.4,-0.31,-0.12
226.4,-0.31,-0.12
226.4,-0.3,-0.14
226.41,-0.325,-0.145
226.41,-0.32,-0.135
226.41,-0.305,-0.135
226.41,-0.305,-0.125
226.42,-0.3,-0.14
226.42,-0.305,-0.155
226.42,-0.33,-0.155
226.42,-0.325,-0.145
226.43,-0.315,-0.155
226.43,-0.305,-0.15
226.43,-0.305,-0.16
226.44,-0.315,-0.165
226.44,-0.32,-0.175
226.44,-0.32,-0.155
226.44,-0.32,-0.15
226.45,-0.3,-0.155
226.45,-0.305,-0.165
226.45,-0.32,-0.18
226.46,-0.325,-0.18
226.46,-0.325,-0.175
226.46,-0.32,-0.165
226.46,-0.32,-0.17
226.47,-0.32,-0.18
226.47,-0.32,-0.195
226.47,-0.33,-0.175
226.48,-0.335,-0.17
226.48,-0.33,-0.17
226.48,-0.315,-0.18
226.48,-0.325,-0.185
226.49,-0.33,-0.19
226.49,-0.34,-0.19
226.49,-0.335,-0.185
226.49,-0.325,-0.18
226.5,-0.32,-0.185
226.5,-0.315,-0.185
226.5,-0.335,-0.205
226.51,-0.345,-0.19
226.51,-0.33,-0.18
226.51,-0.33,-0.175
226.51,-0.325,-0.19
226.52,-0.325,-0.18
226.52,-0.33,-0.185
226.52,-0.35,-0.185
226.52,-0.335,-0.185
226.53,-0.325,-0.18
226.53,-0.325,-0.175
226.53,-0.325,-0.18
226.54,-0.335,-0.185
226.54,-0.34,-0.19
226.54,-0.345,-0.19
226.54,-0.335,-0.17
226.55,-0.32,-0.175
226.55,-0.325,-0.175
226.55,-0.34,-0.195
226.56,-0.34,-0.19
226.56,-0.345,-0.175
226.56,-0.33,-0.17
226.56,-0.33,-0.17
226.57,-0.33,-0.185
226.57,-0.34,-0.19
226.57,-0.335,-0.19
226.57,-0.34,-0.19
226.58,-0.33,-0.175
226.58,-0.32,-0.18
226.58,-0.325,-0.17
226.59,-0.325,-0.18
226.59,-0.335,-0.195
226.59,-0.33,-0.175
226.59,-0.32,-0.165
226.6,-0.315,-0.17
226.6,-0.31,-0.17
226.6,-0.325,-0.175
226.61,-0.325,-0.17
226.61,-0.315,-0.155
226.61,-0.305,-0.14
226.61,-0.29,-0.12
226.62,-0.285,-0.075
226.62,-0.285,0.055
226.62,-0.28,0.37
226.62,-0.255,0.76
226.63,-0.215,0.94
226.63,-0.165,0.77
226.63,-0.045,0.505
226.64,0.235,0.35
226.64,0.585,0.28
226.64,0.775,0.255
226.64,0.635,0.235
226.65,0.355,0.205
226.65,0.165,0.165
226.65,0.11,0.125
226.66,0.115,0.075
226.66,0.12,0.015
226.66,0.14,-0.085
226.66,0.14,-0.24
226.67,0.155,-0.425
226.67,0.17,-0.645
226.67,0.17,-0.875
226.67,0.185,-1.115
226.68,0.195,-1.375
226.68,0.2,-1.63
226.68,0.19,-1.87
226.69,0.155,-2.055
226.69,0.15,-2.23
226.69,0.15,-2.375
226.69,0.165,-2.49
226.7,0.165,-2.6
226.7,0.15,-2.685
226.7,0.125,-2.795
226.71,0.09,-2.895
226.71,0.07,-2.965
226.71,0.035,-2.99
226.71,-0.02,-3.03
226.72,-0.09,-3.055
226.72,-0.155,-3.075
226.72,-0.2,-3.095
226.73,-0.235,-3.1
226.73,-0.315,-3.095
226.73,-0.38,-3.11
226.73,-0.455,-3.115
226.74,-0.5,-3.115
226.74,-0.505,-3.105
226.74,-0.48,-3.11
226.74,-0.445,-3.1
226.75,-0.43,-3.085
226.75,-0.45,-3.07
226.75,-0.47,-3.045
226.76,-0.495,-3.005
226.76,-0.505,-2.925
226.76,-0.51,-2.835
226.76,-0.505,-2.725
226.77,-0.5,-2.615
226.77,-0.485,-2.505
226.77,-0.49,-2.345
226.77,-0.46,-2.17
226.78,-0.44,-1.96
226.78,-0.425,-1.735
226.78,-0.42,-1.54
226.79,-0.425,-1.34
226.79,-0.425,-1.125
226.79,-0.425,-0.89
226.79,-0.42,-0.665
226.8,-0.43,-0.46
226.8,-0.435,-0.285
226.8,-0.44,-0.115
226.81,-0.455,0.045
226.81,-0.45,0.215
226.81,-0.44,0.365
226.81,-0.445,0.505
226.82,-0.43,0.615
226.82,-0.42,0.695
226.82,-0.415,0.755
226.82,-0.415,0.81
226.83,-0.39,0.87
226.83,-0.39,0.895
226.83,-0.385,0.935
226.84,-0.39,0.96
226.84,-0.4,0.985
226.84,-0.38,1.03
226.84,-0.38,1.07
226.85,-0.37,1.105
226.85,-0.365,1.12
226.85,-0.385,1.125
226.86,-0.385,1.16
226.86,-0.38,1.195
226.86,-0.37,1.23
226.86,-0.365,1.24
226.87,-0.37,1.265
226.87,-0.37,1.28
226.87,-0.38,1.3
226.88,-0.39,1.335
226.88,-0.375,1.375
226.88,-0.365,1.4
226.88,-0.36,1.415
226.89,-0.375,1.43
226.89,-0.375,1.465
226.89,-0.37,1.5
226.89,-0.355,1.54
226.9,-0.35,1.55
226.9,-0.36,1.59
226.9,-0.355,1.61
226.91,-0.37,1.635
226.91,-0.36,1.67
226.91,-0.35,1.725
226.91,-0.355,1.745
226.92,-0.35,1.78
226.92,-0.365,1.8
226.92,-0.35,1.83
226.92,-0.36,1.87
226.93,-0.35,1.91
226.93,-0.325,1.945
226.93,-0.32,1.955
226.94,-0.325,1.965
226.94,-0.33,1.99
226.94,-0.31,2.015
226.94,-0.3,2.04
226.95,-0.295,2.05
226.95,-0.285,2.045
226.95,-0.28,2.05
226.96,-0.27,2.05
226.96,-0.255,2.05
226.96,-0.24,2.055
226.96,-0.215,2.025
226.97,-0.21,1.995
226.97,-0.215,1.96
226.97,-0.21,1.93
226.98,-0.185,1.92
226.98,-0.17,1.88
226.98,-0.16,1.835
226.98,-0.145,1.78
226.99,-0.13,1.715
226.99,-0.14,1.67
226.99,-0.135,1.6
226.99,-0.115,1.555
227,-0.105,1.485
227,-0.105,1.405
227,-0.12,1.33
227.01,-0.12,1.26
227.01,-0.11,1.205
227.01,-0.105,1.145
227.01,-0.09,1.09
227.02,-0.09,1.02
227.02,-0.105,0.965
227.02,-0.115,0.89
227.02,-0.125,0.835
227.03,-0.12,0.8
227.03,-0.135,0.72
227.03,-0.14,0.66
227.04,-0.155,0.6
227.04,-0.18,0.54
227.04,-0.16,0.51
227.04,-0.17,0.48
227.05,-0.15,0.43
227.05,-0.165,0.38
227.05,-0.18,0.345
227.06,-0.195,0.305
227.06,-0.195,0.29
227.06,-0.195,0.28
227.06,-0.2,0.235
227.07,-0.205,0.205
227.07,-0.22,0.185
227.07,-0.23,0.17
227.07,-0.245,0.16
227.08,-0.25,0.155
227.08,-0.235,0.135
227.08,-0.235,0.12
227.09,-0.25,0.09
227.09,-0.265,0.08
227.09,-0.265,0.105
227.09,-0.26,0.095
227.1,-0.265,0.08
227.1,-0.27,0.06
227.1,-0.27,0.06
227.11,-0.29,0.055
227.11,-0.285,0.055
227.11,-0.275,0.055
227.11,-0.27,0.055
227.12,-0.28,0.045
227.12,-0.29,0.04
227.12,-0.305,0.035
227.12,-0.295,0.05
227.13,-0.29,0.065
227.13,-0.29,0.06
227.13,-0.285,0.05
227.14,-0.29,0.04
227.14,-0.31,0.035
227.14,-0.31,0.055
227.14,-0.285,0.055
227.15,-0.3,0.05
227.15,-0.29,0.045
227.15,-0.305,0.04
227.16,-0.32,0.025
227.16,-0.305,0.04
227.16,-0.32,0.045
227.16,-0.31,0.05
227.17,-0.31,0.03
227.17,-0.315,0.025
227.17,-0.325,0.035
227.17,-0.315,0.035
227.18,-0.31,0.045
227.18,-0.3,0.025
227.18,-0.325,0.025
227.19,-0.325,0.015
227.19,-0.34,0.005
227.19,-0.33,0.01
227.19,-0.325,0.02
227.2,-0.33,0.02
227.2,-0.33,0.005
227.2,-0.34,-0.005
227.21,-0.35,-0.015
227.21,-0.345,-0.015
227.21,-0.33,-0.005
227.21,-0.335,-0.01
227.22,-0.33,-0.025
227.22,-0.355,-0.03
227.22,-0.36,-0.035
227.23,-0.36,-0.03
227.23,-0.34,-0.015
227.23,-0.35,-0.03
227.23,-0.355,-0.065
227.24,-0.36,-0.06
227.24,-0.375,-0.065
227.24,-0.365,-0.06
227.24,-0.355,-0.045
227.25,-0.345,-0.07
227.25,-0.35,-0.075
227.25,-0.355,-0.08
227.26,-0.36,-0.085
227.26,-0.355,-0.08
227.26,-0.355,-0.09
227.26,-0.355,-0.095
227.27,-0.365,-0.09
227.27,-0.355,-0.1
227.27,-0.375,-0.11
227.27,-0.36,-0.105
227.28,-0.355,-0.1
227.28,-0.35,-0.1
227.28,-0.345,-0.125
227.29,-0.36,-0.125
227.29,-0.375,-0.125
227.29,-0.36,-0.11
227.29,-0.35,-0.115
227.3,-0.35,-0.12
227.3,-0.355,-0.135
227.3,-0.36,-0.14
227.31,-0.375,-0.145
227.31,-0.35,-0.13
227.31,-0.355,-0.125
227.31,-0.345,-0.125
227.32,-0.34,-0.14
227.32,-0.355,-0.14
227.32,-0.37,-0.145
227.32,-0.365,-0.14
227.33,-0.35,-0.13
227.33,-0.35,-0.135
227.33,-0.345,-0.15
227.34,-0.35,-0.15
227.34,-0.365,-0.15
227.34,-0.365,-0.15
227.34,-0.35,-0.14
227.35,-0.36,-0.14
227.35,-0.345,-0.15
227.35,-0.36,-0.155
227.36,-0.36,-0.16
227.36,-0.365,-0.14
227.36,-0.36,-0.14
227.36,-0.345,-0.15
227.37,-0.345,-0.15
227.37,-0.355,-0.16
227.37,-0.365,-0.16
227.38,-0.355,-0.145
227.38,-0.36,-0.145
227.38,-0.35,-0.15
227.38,-0.345,-0.15
227.39,-0.35,-0.165
227.39,-0.37,-0.17
227.39,-0.36,-0.165
227.39,-0.365,-0.145
227.4,-0.345,-0.155
227.4,-0.34,-0.16
227.4,-0.36,-0.16
227.41,-0.35,-0.175
227.41,-0.35,-0.17
227.41,-0.35,-0.145
227.41,-0.33,-0.155
227.42,-0.34,-0.165
227.42,-0.355,-0.165
227.42,-0.35,-0.165
227.42,-0.335,-0.16
227.43,-0.33,-0.15
227.43,-0.34,-0.16
227.43,-0.335,-0.17
227.44,-0.335,-0.175
227.44,-0.34,-0.17
227.44,-0.33,-0.16
227.44,-0.325,-0.15
227.45,-0.32,-0.15
227.45,-0.315,-0.14
227.45,-0.315,-0.15
227.46,-0.325,-0.125
227.46,-0.315,-0.08
227.46,-0.29,0.005
227.46,-0.27,0.255
227.47,-0.255,0.64
227.47,-0.225,0.865
227.47,-0.175,0.75
227.48,-0.045,0.495
227.48,0.22,0.33
227.48,0.58,0.265
227.48,0.75,0.21
227.49,0.58,0.155
227.49,0.295,0.08
227.49,0.105,0.025
227.49,0.07,-0.065
227.5,0.095,-0.225
227.5,0.105,-0.4
227.5,0.1,-0.59
227.51,0.085,-0.815
227.51,0.09,-1.035
227.51,0.105,-1.235
227.51,0.12,-1.435
227.52,0.13,-1.61
227.52,0.11,-1.775
227.52,0.085,-1.94
227.52,0.08,-2.12
227.53,0.085,-2.305
227.53,0.1,-2.51
227.53,0.085,-2.655
227.54,0.05,-2.75
227.54,0.025,-2.85
227.54,-0.015,-2.905
227.54,-0.055,-2.96
227.55,-0.095,-3.015
227.55,-0.155,-3.055
227.55,-0.215,-3.07
227.56,-0.285,-3.095
227.56,-0.35,-3.1
227.56,-0.41,-3.095
227.56,-0.485,-3.1
227.57,-0.555,-3.13
227.57,-0.615,-3.125
227.57,-0.63,-3.115
227.57,-0.595,-3.105
227.58,-0.55,-3.075
227.58,-0.515,-3.065
227.58,-0.49,-3.055
227.59,-0.485,-3.04
227.59,-0.49,-2.96
227.59,-0.48,-2.905
227.59,-0.465,-2.78
227.6,-0.465,-2.66
227.6,-0.47,-2.51
227.6,-0.47,-2.345
227.61,-0.46,-2.125
227.61,-0.41,-1.89
227.61,-0.38,-1.635
227.61,-0.35,-1.39
227.62,-0.325,-1.14
227.62,-0.335,-0.92
227.62,-0.37,-0.68
227.62,-0.375,-0.465
227.63,-0.375,-0.26
227.63,-0.38,-0.08
227.63,-0.4,0.085
227.64,-0.41,0.255
227.64,-0.42,0.42
227.64,-0.405,0.555
227.64,-0.39,0.655
227.65,-0.365,0.715
227.65,-0.37,0.76
227.65,-0.365,0.805
227.66,-0.375,0.835
227.66,-0.37,0.89
227.66,-0.36,0.94
227.66,-0.35,0.96
227.67,-0.355,0.975
227.67,-0.35,1.005
227.67,-0.37,1.035
227.67,-0.36,1.07
227.68,-0.355,1.095
227.68,-0.345,1.12
227.68,-0.34,1.135
227.69,-0.35,1.145
227.69,-0.36,1.17
227.69,-0.35,1.2
227.69,-0.355,1.245
227.7,-0.34,1.26
227.7,-0.34,1.28
227.7,-0.345,1.305
227.71,-0.355,1.325
227.71,-0.345,1.36
227.71,-0.34,1.415
227.71,-0.33,1.435
227.72,-0.335,1.46
227.72,-0.34,1.485
227.72,-0.34,1.515
227.73,-0.33,1.565
227.73,-0.325,1.595
227.73,-0.31,1.63
227.73,-0.305,1.655
227.74,-0.325,1.685
227.74,-0.34,1.71
227.74,-0.325,1.735
227.74,-0.305,1.78
227.75,-0.3,1.805
227.75,-0.305,1.82
227.75,-0.305,1.845
227.76,-0.3,1.855
227.76,-0.29,1.89
227.76,-0.27,1.92
227.76,-0.255,1.925
227.77,-0.245,1.93
227.77,-0.24,1.935
227.77,-0.26,1.945
227.77,-0.245,1.93
227.78,-0.245,1.96
227.78,-0.215,1.94
227.78,-0.22,1.925
227.79,-0.21,1.9
227.79,-0.22,1.88
227.79,-0.195,1.87
227.79,-0.175,1.855
227.8,-0.17,1.81
227.8,-0.155,1.775
227.8,-0.17,1.71
227.81,-0.165,1.66
227.81,-0.17,1.625
227.81,-0.145,1.565
227.81,-0.14,1.51
227.82,-0.14,1.44
227.82,-0.13,1.375
227.82,-0.13,1.305
227.82,-0.12,1.23
227.83,-0.1,1.17
227.83,-0.095,1.09
227.83,-0.1,1.02
227.84,-0.11,0.94
227.84,-0.12,0.865
227.84,-0.11,0.805
227.84,-0.1,0.76
227.85,-0.1,0.69
227.85,-0.115,0.635
227.85,-0.125,0.57
227.86,-0.14,0.51
227.86,-0.14,0.465
227.86,-0.14,0.43
227.86,-0.13,0.39
227.87,-0.14,0.33
227.87,-0.17,0.3
227.87,-0.175,0.26
227.88,-0.175,0.245
227.88,-0.18,0.24
227.88,-0.175,0.205
227.88,-0.18,0.175
227.89,-0.21,0.16
227.89,-0.225,0.14
227.89,-0.22,0.14
227.89,-0.215,0.135
227.9,-0.225,0.12
227.9,-0.235,0.105
227.9,-0.24,0.095
227.91,-0.25,0.075
227.91,-0.25,0.1
227.91,-0.24,0.1
227.91,-0.24,0.105
227.92,-0.255,0.095
227.92,-0.255,0.08
227.92,-0.27,0.085
227.92,-0.265,0.095
227.93,-0.27,0.105
227.93,-0.26,0.11
227.93,-0.265,0.1
227.94,-0.285,0.105
227.94,-0.305,0.075
227.94,-0.295,0.105
227.94,-0.29,0.115
227.95,-0.27,0.115
227.95,-0.26,0.115
227.95,-0.26,0.095
227.96,-0.265,0.085
227.96,-0.265,0.075
227.96,-0.265,0.075
227.96,-0.255,0.06
227.97,-0.27,0.035
227.97,-0.265,0.02
227.97,-0.26,0.02
227.98,-0.245,0.005
227.98,-0.24,0.015
227.98,-0.24,0.005
227.98,-0.25,-0.01
227.99,-0.265,-0.025
227.99,-0.27,-0.025
227.99,-0.275,-0.02
227.99,-0.275,-0.015
228,-0.25,-0.02
228,-0.27,-0.025
228,-0.29,-0.02
228.01,-0.31,-0.02
228.01,-0.32,-0.015
228.01,-0.305,-0.015
228.01,-0.315,-0.025
228.02,-0.335,-0.04
228.02,-0.34,-0.045
228.02,-0.35,-0.05
228.02,-0.335,-0.055
228.03,-0.34,-0.05
228.03,-0.335,-0.04
228.03,-0.34,-0.05
228.04,-0.35,-0.075
228.04,-0.365,-0.075
228.04,-0.36,-0.075
228.04,-0.36,-0.06
228.05,-0.355,-0.075
228.05,-0.36,-0.085
228.05,-0.365,-0.105
228.06,-0.38,-0.105
228.06,-0.37,-0.1
228.06,-0.365,-0.095
228.06,-0.375,-0.1
228.07,-0.38,-0.11
228.07,-0.38,-0.12
228.07,-0.39,-0.115
228.07,-0.375,-0.115
228.08,-0.38,-0.105
228.08,-0.37,-0.12
228.08,-0.375,-0.125
228.09,-0.39,-0.14
228.09,-0.4,-0.14
228.09,-0.39,-0.13
228.09,-0.38,-0.125
228.1,-0.365,-0.13
228.1,-0.37,-0.145
228.1,-0.37,-0.14
228.11,-0.385,-0.15
228.11,-0.38,-0.135
228.11,-0.38,-0.13
228.11,-0.365,-0.125
228.12,-0.365,-0.145
228.12,-0.37,-0.15
228.12,-0.385,-0.145
228.12,-0.395,-0.135
228.13,-0.38,-0.13
228.13,-0.37,-0.13
228.13,-0.365,-0.14
228.14,-0.37,-0.145
228.14,-0.375,-0.15
228.14,-0.355,-0.145
228.14,-0.355,-0.135
228.15,-0.36,-0.14
228.15,-0.365,-0.145
228.15,-0.38,-0.16
228.16,-0.385,-0.14
228.16,-0.375,-0.135
228.16,-0.375,-0.12
228.16,-0.365,-0.13
228.17,-0.365,-0.135
228.17,-0.38,-0.14
228.17,-0.38,-0.155
228.17,-0.375,-0.145
228.18,-0.37,-0.135
228.18,-0.35,-0.14
228.18,-0.37,-0.145
228.19,-0.36,-0.145
228.19,-0.37,-0.145
228.19,-0.375,-0.135
228.19,-0.365,-0.135
228.2,-0.36,-0.13
228.2,-0.365,-0.13
228.2,-0.365,-0.14
228.21,-0.375,-0.135
228.21,-0.365,-0.13
228.21,-0.355,-0.12
228.21,-0.355,-0.135
228.22,-0.365,-0.14
228.22,-0.36,-0.15
228.22,-0.365,-0.145
228.23,-0.355,-0.13
228.23,-0.35,-0.13
228.23,-0.355,-0.115
228.23,-0.35,-0.125
228.24,-0.345,-0.13
228.24,-0.355,-0.13
228.24,-0.345,-0.11
228.24,-0.35,-0.09
228.25,-0.33,-0.06
228.25,-0.315,0
228.25,-0.315,0.205
228.26,-0.285,0.605
228.26,-0.255,0.96
228.26,-0.185,0.915
228.26,-0.07,0.61
228.27,0.215,0.38
228.27,0.595,0.295
228.27,0.77,0.275
228.27,0.595,0.245
228.28,0.295,0.205
228.28,0.11,0.145
228.28,0.06,0.075
228.29,0.075,-0.03
228.29,0.08,-0.185
228.29,0.095,-0.36
228.29,0.095,-0.55
228.3,0.115,-0.82
228.3,0.125,-1.085
228.3,0.115,-1.35
228.31,0.11,-1.625
228.31,0.105,-1.87
228.31,0.09,-2.085
228.31,0.08,-2.27
228.32,0.065,-2.4
228.32,0.07,-2.525
228.32,0.07,-2.6
228.32,0.075,-2.655
228.33,0.09,-2.7
228.33,0.095,-2.765
228.33,0.06,-2.845
228.34,0.06,-2.915
228.34,0,-2.965
228.34,-0.04,-2.985
228.34,-0.085,-2.99
228.35,-0.115,-3.01
228.35,-0.14,-3.045
228.35,-0.2,-3.065
228.36,-0.295,-3.075
228.36,-0.375,-3.065
228.36,-0.415,-3.05
228.36,-0.405,-3.055
228.37,-0.37,-3.055
228.37,-0.345,-3.06
228.37,-0.335,-3.02
228.38,-0.345,-2.985
228.38,-0.355,-2.935
228.38,-0.375,-2.865
228.38,-0.41,-2.8
228.39,-0.44,-2.715
228.39,-0.465,-2.575
228.39,-0.465,-2.43
228.39,-0.445,-2.265
228.4,-0.43,-2.095
228.4,-0.42,-1.88
228.4,-0.425,-1.67
228.41,-0.455,-1.43
228.41,-0.46,-1.205
228.41,-0.445,-1
228.41,-0.43,-0.79
228.42,-0.43,-0.56
228.42,-0.425,-0.36
228.42,-0.455,-0.16
228.42,-0.455,0.015
228.43,-0.46,0.16
228.43,-0.455,0.29
228.43,-0.46,0.41
228.44,-0.465,0.525
228.44,-0.465,0.63
228.44,-0.45,0.725
228.44,-0.45,0.805
228.45,-0.44,0.845
228.45,-0.445,0.89
228.45,-0.45,0.91
228.46,-0.46,0.96
228.46,-0.44,1.015
228.46,-0.445,1.065
228.46,-0.44,1.09
228.47,-0.43,1.125
228.47,-0.42,1.155
228.47,-0.44,1.195
228.48,-0.43,1.235
228.48,-0.425,1.275
228.48,-0.42,1.31
228.48,-0.4,1.34
228.49,-0.41,1.38
228.49,-0.42,1.415
228.49,-0.415,1.46
228.49,-0.42,1.51
228.5,-0.405,1.54
228.5,-0.41,1.58
228.5,-0.43,1.62
228.51,-0.425,1.655
228.51,-0.425,1.715
228.51,-0.41,1.755
228.51,-0.405,1.79
228.52,-0.395,1.83
228.52,-0.405,1.85
228.52,-0.415,1.885
228.52,-0.4,1.93
228.53,-0.4,1.975
228.53,-0.385,2
228.53,-0.37,2.03
228.54,-0.365,2.05
228.54,-0.375,2.07
228.54,-0.36,2.11
228.54,-0.34,2.125
228.55,-0.32,2.145
228.55,-0.335,2.16
228.55,-0.34,2.15
228.56,-0.345,2.165
228.56,-0.34,2.165
228.56,-0.33,2.165
228.56,-0.29,2.15
228.57,-0.3,2.125
228.57,-0.28,2.09
228.57,-0.265,2.07
228.57,-0.25,2.04
228.58,-0.245,2.015
228.58,-0.245,1.97
228.58,-0.24,1.92
228.59,-0.23,1.86
228.59,-0.225,1.805
228.59,-0.21,1.765
228.59,-0.21,1.72
228.6,-0.22,1.645
228.6,-0.23,1.575
228.6,-0.225,1.495
228.61,-0.22,1.43
228.61,-0.22,1.37
228.61,-0.205,1.315
228.61,-0.195,1.245
228.62,-0.195,1.185
228.62,-0.185,1.095
228.62,-0.19,1.03
228.62,-0.2,0.97
228.63,-0.195,0.93
228.63,-0.185,0.86
228.63,-0.2,0.795
228.64,-0.195,0.73
228.64,-0.205,0.68
228.64,-0.2,0.635
228.64,-0.19,0.6
228.65,-0.2,0.555
228.65,-0.195,0.515
228.65,-0.22,0.45
228.66,-0.225,0.42
228.66,-0.22,0.39
228.66,-0.225,0.365
228.66,-0.225,0.325
228.67,-0.235,0.29
228.67,-0.235,0.255
228.67,-0.24,0.24
228.67,-0.235,0.23
228.68,-0.215,0.22
228.68,-0.215,0.2
228.68,-0.225,0.17
228.69,-0.245,0.145
228.69,-0.26,0.135
228.69,-0.27,0.125
228.69,-0.27,0.12
228.7,-0.265,0.11
228.7,-0.26,0.095
228.7,-0.27,0.08
228.71,-0.295,0.075
228.71,-0.29,0.065
228.71,-0.28,0.085
228.71,-0.25,0.065
228.72,-0.245,0.065
228.72,-0.235,0.06
228.72,-0.25,0.055
228.73,-0.255,0.06
228.73,-0.26,0.065
228.73,-0.26,0.065
228.73,-0.25,0.06
228.74,-0.275,0.04
228.74,-0.275,0.05
228.74,-0.285,0.05
228.74,-0.285,0.06
228.75,-0.275,0.065
228.75,-0.275,0.045
228.75,-0.28,0.04
228.76,-0.275,0.04
228.76,-0.26,0.05
228.76,-0.255,0.055
228.76,-0.265,0.055
228.77,-0.29,0.035
228.77,-0.315,0.04
228.77,-0.33,0.035
228.77,-0.32,0.04
228.78,-0.3,0.05
228.78,-0.295,0.045
228.78,-0.295,0.04
228.79,-0.305,0.03
228.79,-0.3,0.03
228.79,-0.3,0.04
228.79,-0.3,0.04
228.8,-0.305,0.03
228.8,-0.32,0.015
228.8,-0.33,0.01
228.81,-0.335,0.01
228.81,-0.32,0.015
228.81,-0.3,0.015
228.81,-0.285,0.01
228.82,-0.29,0.01
228.82,-0.295,-0.005
228.82,-0.32,-0.01
228.82,-0.305,-0.005
228.83,-0.3,0.01
228.83,-0.295,-0.01
228.83,-0.31,-0.01
228.84,-0.305,-0.03
228.84,-0.305,-0.04
228.84,-0.325,-0.03
228.84,-0.31,-0.01
228.85,-0.305,-0.025
228.85,-0.315,-0.03
228.85,-0.32,-0.03
228.86,-0.345,-0.03
228.86,-0.345,-0.01
228.86,-0.35,-0.005
228.86,-0.355,0.005
228.87,-0.35,0.005
228.87,-0.335,-0.01
228.87,-0.335,-0.02
228.88,-0.32,-0.005
228.88,-0.32,0
228.88,-0.32,0.005
228.88,-0.34,-0.015
228.89,-0.34,-0.02
228.89,-0.355,-0.025
228.89,-0.35,-0.015
228.89,-0.34,-0.01
228.9,-0.31,-0.01
228.9,-0.295,-0.03
228.9,-0.32,-0.045
228.91,-0.315,-0.065
228.91,-0.32,-0.055
228.91,-0.295,-0.07
228.91,-0.28,-0.08
228.92,-0.275,-0.08
228.92,-0.285,-0.1
228.92,-0.275,-0.105
228.92,-0.29,-0.11
228.93,-0.285,-0.115
228.93,-0.295,-0.125
228.93,-0.315,-0.14
228.94,-0.32,-0.16
228.94,-0.34,-0.165
228.94,-0.31,-0.155
228.94,-0.315,-0.145
228.95,-0.3,-0.14
228.95,-0.295,-0.145
228.95,-0.3,-0.145
228.96,-0.3,-0.13
228.96,-0.295,-0.115
228.96,-0.285,-0.115
228.96,-0.295,-0.12
228.97,-0.31,-0.135
228.97,-0.32,-0.135
228.97,-0.34,-0.14
228.98,-0.34,-0.135
228.98,-0.345,-0.115
228.98,-0.33,-0.115
228.98,-0.325,-0.13
228.99,-0.33,-0.145
228.99,-0.33,-0.15
228.99,-0.32,-0.14
228.99,-0.315,-0.125
229,-0.33,-0.135
229,-0.335,-0.145
229,-0.35,-0.145
229.01,-0.36,-0.14
229.01,-0.35,-0.135
229.01,-0.335,-0.12
229.01,-0.345,-0.12
229.02,-0.335,-0.13
229.02,-0.335,-0.135
229.02,-0.33,-0.145
229.02,-0.32,-0.13
229.03,-0.315,-0.105
229.03,-0.315,-0.11
229.03,-0.315,-0.115
229.04,-0.32,-0.125
229.04,-0.31,-0.125
229.04,-0.295,-0.1
229.04,-0.28,-0.075
229.05,-0.275,-0.035
229.05,-0.27,0.05
229.05,-0.26,0.285
229.06,-0.25,0.69
229.06,-0.2,0.98
229.06,-0.14,0.875
229.06,0,0.57
229.07,0.295,0.38
229.07,0.67,0.325
229.07,0.81,0.3
229.07,0.595,0.275
229.08,0.29,0.255
229.08,0.12,0.215
229.08,0.09,0.19
229.09,0.105,0.145
229.09,0.1,0.09
229.09,0.125,-0.005
229.09,0.155,-0.115
229.1,0.185,-0.27
229.1,0.195,-0.455
229.1,0.225,-0.665
229.11,0.25,-0.875
229.11,0.27,-1.08
229.11,0.3,-1.295
229.11,0.295,-1.535
229.12,0.29,-1.735
229.12,0.275,-1.9
229.12,0.27,-2.04
229.12,0.305,-2.15
229.13,0.34,-2.235
229.13,0.335,-2.34
229.13,0.335,-2.44
229.14,0.305,-2.56
229.14,0.305,-2.67
229.14,0.295,-2.765
229.14,0.25,-2.825
229.15,0.205,-2.865
229.15,0.14,-2.905
229.15,0.075,-2.95
229.16,0.03,-2.97
229.16,-0.045,-2.985
229.16,-0.14,-2.99
229.16,-0.24,-3.005
229.17,-0.32,-3
229.17,-0.37,-3.015
229.17,-0.37,-3.005
229.17,-0.345,-2.98
229.18,-0.335,-2.96
229.18,-0.345,-2.945
229.18,-0.37,-2.89
229.19,-0.39,-2.82
229.19,-0.42,-2.715
229.19,-0.45,-2.595
229.19,-0.47,-2.46
229.2,-0.47,-2.305
229.2,-0.455,-2.17
229.2,-0.455,-1.995
229.21,-0.46,-1.79
229.21,-0.435,-1.565
229.21,-0.44,-1.345
229.21,-0.435,-1.145
229.22,-0.435,-0.94
229.22,-0.435,-0.75
229.22,-0.445,-0.545
229.23,-0.43,-0.345
229.23,-0.43,-0.16
229.23,-0.44,-0.005
229.23,-0.445,0.13
229.24,-0.455,0.245
229.24,-0.47,0.375
229.24,-0.46,0.505
229.24,-0.44,0.615
229.25,-0.43,0.695
229.25,-0.42,0.76
229.25,-0.44,0.795
229.26,-0.44,0.84
229.26,-0.42,0.89
229.26,-0.41,0.94
229.26,-0.41,0.975
229.27,-0.4,1.015
229.27,-0.405,1.045
229.27,-0.42,1.07
229.27,-0.41,1.11
229.28,-0.395,1.165
229.28,-0.4,1.19
229.28,-0.41,1.225
229.29,-0.405,1.25
229.29,-0.425,1.3
229.29,-0.405,1.33
229.29,-0.41,1.385
229.3,-0.415,1.42
229.3,-0.41,1.44
229.3,-0.425,1.475
229.31,-0.425,1.51
229.31,-0.425,1.565
229.31,-0.41,1.625
229.31,-0.42,1.655
229.32,-0.42,1.685
229.32,-0.425,1.71
229.32,-0.425,1.74
229.32,-0.42,1.795
229.33,-0.405,1.835
229.33,-0.4,1.875
229.33,-0.395,1.89
229.34,-0.415,1.905
229.34,-0.42,1.945
229.34,-0.4,1.98
229.34,-0.38,2.01
229.35,-0.375,2.035
229.35,-0.375,2.045
229.35,-0.38,2.045
229.36,-0.375,2.05
229.36,-0.365,2.06
229.36,-0.34,2.075
229.36,-0.34,2.065
229.37,-0.33,2.035
229.37,-0.335,2.01
229.37,-0.32,1.985
229.38,-0.305,1.975
229.38,-0.29,1.935
229.38,-0.28,1.9
229.38,-0.275,1.855
229.39,-0.27,1.8
229.39,-0.275,1.74
229.39,-0.25,1.7
229.39,-0.235,1.66
229.4,-0.23,1.575
229.4,-0.225,1.51
229.4,-0.215,1.435
229.41,-0.225,1.37
229.41,-0.22,1.305
229.41,-0.205,1.255
229.41,-0.2,1.185
229.42,-0.19,1.11
229.42,-0.195,1.035
229.42,-0.22,0.97
229.42,-0.205,0.92
229.43,-0.19,0.865
229.43,-0.195,0.8
229.43,-0.19,0.735
229.44,-0.205,0.68
229.44,-0.22,0.62
229.44,-0.22,0.585
229.44,-0.205,0.565
229.45,-0.21,0.515
229.45,-0.205,0.46
229.45,-0.225,0.42
229.46,-0.245,0.385
229.46,-0.24,0.36
229.46,-0.225,0.335
229.46,-0.23,0.305
229.47,-0.235,0.28
229.47,-0.25,0.235
229.47,-0.26,0.225
229.48,-0.26,0.21
229.48,-0.25,0.195
229.48,-0.25,0.17
229.48,-0.25,0.155
229.49,-0.265,0.13
229.49,-0.28,0.125
229.49,-0.275,0.12
229.49,-0.27,0.12
229.5,-0.275,0.095
229.5,-0.275,0.08
229.5,-0.285,0.075
229.51,-0.285,0.055
229.51,-0.28,0.07
229.51,-0.275,0.075
229.51,-0.28,0.065
229.52,-0.27,0.06
229.52,-0.28,0.05
229.52,-0.285,0.045
229.52,-0.275,0.065
229.53,-0.275,0.07
229.53,-0.265,0.065
229.53,-0.265,0.045
229.54,-0.29,0.05
229.54,-0.295,0.05
229.54,-0.29,0.055
229.54,-0.275,0.065
229.55,-0.275,0.06
229.55,-0.295,0.05
229.55,-0.29,0.04
229.56,-0.3,0.05
229.56,-0.295,0.045
229.56,-0.28,0.055
229.56,-0.285,0.065
229.57,-0.285,0.055
229.57,-0.305,0.04
229.57,-0.3,0.035
229.57,-0.3,0.05
229.58,-0.29,0.055
229.58,-0.295,0.055
229.58,-0.3,0.04
229.59,-0.3,0.03
229.59,-0.31,0.03
229.59,-0.3,0.045
229.59,-0.29,0.05
229.6,-0.29,0.045
229.6,-0.31,0.04
229.6,-0.315,0.025
229.61,-0.32,0.02
229.61,-0.315,0.03
229.61,-0.31,0.03
229.61,-0.3,0.02
229.62,-0.305,0.015
229.62,-0.325,0
229.62,-0.325,0.005
229.62,-0.32,0.005
229.63,-0.32,0.02
229.63,-0.305,0.005
229.63,-0.315,-0.01
229.64,-0.33,-0.02
229.64,-0.34,-0.03
229.64,-0.33,-0.01
229.64,-0.315,-0.015
229.65,-0.315,-0.01
229.65,-0.34,-0.03
229.65,-0.335,-0.045
229.66,-0.335,-0.035
229.66,-0.335,-0.03
229.66,-0.33,-0.04
229.66,-0.325,-0.04
229.67,-0.33,-0.05
229.67,-0.33,-0.06
229.67,-0.345,-0.07
229.67,-0.35,-0.055
229.68,-0.335,-0.04
229.68,-0.33,-0.055
229.68,-0.33,-0.06
229.69,-0.35,-0.08
229.69,-0.355,-0.08
229.69,-0.345,-0.075
229.69,-0.34,-0.075
229.7,-0.34,-0.07
229.7,-0.345,-0.09
229.7,-0.35,-0.095
229.71,-0.35,-0.1
229.71,-0.345,-0.095
229.71,-0.335,-0.09
229.71,-0.34,-0.095
229.72,-0.335,-0.095
229.72,-0.35,-0.11
229.72,-0.355,-0.115
229.73,-0.355,-0.1
229.73,-0.35,-0.09
229.73,-0.335,-0.105
229.73,-0.35,-0.105
229.74,-0.35,-0.125
229.74,-0.345,-0.12
229.74,-0.35,-0.11
229.74,-0.355,-0.095
229.75,-0.345,-0.1
229.75,-0.35,-0.115
229.75,-0.355,-0.12
229.76,-0.36,-0.115
229.76,-0.36,-0.1
229.76,-0.35,-0.095
229.76,-0.35,-0.1
229.77,-0.355,-0.105
229.77,-0.37,-0.105
229.77,-0.355,-0.115
229.77,-0.355,-0.09
229.78,-0.345,-0.07
229.78,-0.34,-0.07
229.78,-0.335,-0.08
229.79,-0.345,-0.085
229.79,-0.345,-0.065
229.79,-0.34,-0.06
229.79,-0.335,-0.045
229.8,-0.335,-0.06
229.8,-0.335,-0.07
229.8,-0.345,-0.1
229.81,-0.35,-0.1
229.81,-0.335,-0.1
229.81,-0.32,-0.105
229.81,-0.31,-0.105
229.82,-0.3,-0.11
229.82,-0.3,-0.12
229.82,-0.315,-0.13
229.82,-0.29,-0.13
229.83,-0.29,-0.135
229.83,-0.28,-0.135
229.83,-0.295,-0.165
229.84,-0.305,-0.17
229.84,-0.32,-0.18
229.84,-0.315,-0.165
229.84,-0.305,-0.16
229.85,-0.285,-0.155
229.85,-0.285,-0.12
229.85,-0.295,-0.08
229.86,-0.28,0.095
229.86,-0.26,0.435
229.86,-0.21,0.805
229.86,-0.16,0.895
229.87,-0.095,0.675
229.87,0.075,0.43
229.87,0.4,0.325
229.88,0.74,0.285
229.88,0.765,0.27
229.88,0.485,0.215
229.88,0.195,0.18
229.89,0.06,0.145
229.89,0.055,0.09
229.89,0.085,0
229.89,0.105,-0.1
229.9,0.12,-0.25
229.9,0.125,-0.44
229.9,0.125,-0.65
229.91,0.12,-0.87
229.91,0.14,-1.09
229.91,0.155,-1.3
229.91,0.175,-1.575
229.92,0.18,-1.81
229.92,0.16,-2.01
229.92,0.145,-2.165
229.92,0.18,-2.265
229.93,0.205,-2.35
229.93,0.22,-2.425
229.93,0.215,-2.52
229.94,0.215,-2.625
229.94,0.22,-2.715
229.94,0.225,-2.78
229.94,0.215,-2.83
229.95,0.185,-2.88
229.95,0.12,-2.9
229.95,0.075,-2.93
229.96,0.035,-2.965
229.96,-0.015,-2.985
229.96,-0.075,-2.975
229.96,-0.15,-2.995
229.97,-0.24,-3.025
229.97,-0.305,-3.03
229.97,-0.325,-3.025
229.98,-0.31,-3.02
229.98,-0.27,-3.01
229.98,-0.26,-3.005
229.98,-0.28,-2.995
229.99,-0.305,-2.965
229.99,-0.35,-2.905
229.99,-0.375,-2.815
229.99,-0.41,-2.71
230,-0.43,-2.605
230,-0.45,-2.475
230,-0.445,-2.36
230.01,-0.46,-2.18
230.01,-0.44,-1.96
230.01,-0.43,-1.72
230.01,-0.435,-1.47
230.02,-0.435,-1.26
230.02,-0.43,-1.045
230.02,-0.455,-0.82
230.02,-0.445,-0.595
230.03,-0.445,-0.38
230.03,-0.45,-0.195
230.03,-0.465,-0.04
230.04,-0.48,0.11
230.04,-0.495,0.255
230.04,-0.485,0.42
230.04,-0.48,0.55
230.05,-0.475,0.645
230.05,-0.475,0.73
230.05,-0.485,0.77
230.06,-0.49,0.825
230.06,-0.47,0.865
230.06,-0.465,0.915
230.06,-0.455,0.965
230.07,-0.455,1
230.07,-0.455,1.025
230.07,-0.465,1.06
230.07,-0.455,1.105
230.08,-0.445,1.145
230.08,-0.44,1.18
230.08,-0.445,1.2
230.09,-0.45,1.215
230.09,-0.45,1.265
230.09,-0.44,1.305
230.09,-0.42,1.355
230.1,-0.41,1.375
230.1,-0.42,1.41
230.1,-0.43,1.43
230.11,-0.435,1.45
230.11,-0.425,1.5
230.11,-0.42,1.55
230.11,-0.425,1.59
230.12,-0.425,1.61
230.12,-0.42,1.645
230.12,-0.43,1.675
230.12,-0.42,1.72
230.13,-0.41,1.77
230.13,-0.41,1.81
230.13,-0.415,1.825
230.14,-0.41,1.85
230.14,-0.415,1.875
230.14,-0.395,1.92
230.14,-0.4,1.955
230.15,-0.385,1.985
230.15,-0.39,1.99
230.15,-0.385,2.01
230.16,-0.38,2.04
230.16,-0.375,2.055
230.16,-0.355,2.075
230.16,-0.36,2.075
230.17,-0.35,2.065
230.17,-0.34,2.065
230.17,-0.355,2.055
230.17,-0.34,2.06
230.18,-0.325,2.055
230.18,-0.32,2.04
230.18,-0.315,2.005
230.19,-0.31,1.97
230.19,-0.3,1.93
230.19,-0.285,1.895
230.19,-0.27,1.87
230.2,-0.255,1.81
230.2,-0.265,1.755
230.2,-0.275,1.69
230.21,-0.275,1.63
230.21,-0.26,1.585
230.21,-0.25,1.545
230.21,-0.23,1.465
230.22,-0.23,1.395
230.22,-0.235,1.33
230.22,-0.245,1.27
230.23,-0.235,1.21
230.23,-0.22,1.165
230.23,-0.21,1.09
230.23,-0.21,1.02
230.24,-0.23,0.965
230.24,-0.24,0.9
230.24,-0.225,0.855
230.24,-0.22,0.81
230.25,-0.21,0.75
230.25,-0.225,0.685
230.25,-0.22,0.64
230.26,-0.245,0.58
230.26,-0.23,0.545
230.26,-0.23,0.515
230.26,-0.23,0.46
230.27,-0.235,0.42
230.27,-0.24,0.375
230.27,-0.26,0.34
230.27,-0.27,0.33
230.28,-0.265,0.3
230.28,-0.265,0.26
230.28,-0.265,0.235
230.29,-0.28,0.22
230.29,-0.29,0.19
230.29,-0.275,0.17
230.29,-0.265,0.165
230.3,-0.285,0.145
230.3,-0.275,0.115
230.3,-0.295,0.09
230.31,-0.285,0.095
230.31,-0.29,0.095
230.31,-0.285,0.075
230.31,-0.275,0.075
230.32,-0.295,0.05
230.32,-0.3,0.04
230.32,-0.305,0.04
230.32,-0.285,0.035
230.33,-0.295,0.035
230.33,-0.285,0.035
230.33,-0.3,0.03
230.34,-0.3,0.015
230.34,-0.31,0.025
230.34,-0.295,0.025
230.34,-0.29,0.04
230.35,-0.29,0.015
230.35,-0.295,0.02
230.35,-0.32,0.01
230.36,-0.31,0.01
230.36,-0.3,0.02
230.36,-0.29,0.035
230.36,-0.3,0.02
230.37,-0.29,0.015
230.37,-0.305,0.01
230.37,-0.315,0.01
230.38,-0.32,0.02
230.38,-0.295,0.035
230.38,-0.295,0.015
230.38,-0.305,0.025
230.39,-0.31,0.025
230.39,-0.32,0.025
230.39,-0.315,0.03
230.39,-0.31,0.04
230.4,-0.305,0.035
230.4,-0.315,0.02
230.4,-0.315,0.015
230.41,-0.32,0.005
230.41,-0.31,0.02
230.41,-0.3,0.04
230.41,-0.305,0.025
230.42,-0.315,0.015
230.42,-0.32,0.01
230.42,-0.32,0.015
230.42,-0.32,0.015
230.43,-0.31,0.03
230.43,-0.315,0.015
230.43,-0.325,0.005
230.44,-0.33,0.01
230.44,-0.34,0.005
230.44,-0.33,0.015
230.44,-0.32,0.01
230.45,-0.32,0.005
230.45,-0.32,-0.005
230.45,-0.32,-0.01
230.46,-0.34,-0.015
230.46,-0.325,-0.015
230.46,-0.335,-0.005
230.46,-0.33,-0.015
230.47,-0.34,-0.025
230.47,-0.34,-0.04
230.47,-0.345,-0.045
230.48,-0.34,-0.04
230.48,-0.345,-0.035
230.48,-0.325,-0.035
230.48,-0.325,-0.055
230.49,-0.345,-0.06
230.49,-0.36,-0.075
230.49,-0.355,-0.055
230.49,-0.34,-0.055
230.5,-0.335,-0.065
230.5,-0.345,-0.08
230.5,-0.365,-0.085
230.51,-0.36,-0.09
230.51,-0.355,-0.075
230.51,-0.345,-0.07
230.51,-0.345,-0.085
230.52,-0.345,-0.085
230.52,-0.365,-0.09
230.52,-0.375,-0.105
230.52,-0.36,-0.095
230.53,-0.355,-0.08
230.53,-0.355,-0.1
230.53,-0.36,-0.1
230.54,-0.375,-0.11
230.54,-0.375,-0.115
230.54,-0.365,-0.105
230.54,-0.35,-0.095
230.55,-0.35,-0.105
230.55,-0.355,-0.115
230.55,-0.36,-0.115
230.56,-0.37,-0.12
230.56,-0.365,-0.11
230.56,-0.36,-0.1
230.56,-0.355,-0.115
230.57,-0.355,-0.115
230.57,-0.37,-0.135
230.57,-0.38,-0.14
230.57,-0.355,-0.125
230.58,-0.35,-0.105
230.58,-0.355,-0.115
230.58,-0.355,-0.125
230.59,-0.355,-0.145
230.59,-0.375,-0.13
230.59,-0.365,-0.13
230.59,-0.35,-0.125
230.6,-0.35,-0.135
230.6,-0.355,-0.14
230.6,-0.36,-0.16
230.61,-0.37,-0.145
230.61,-0.365,-0.155
230.61,-0.355,-0.13
230.61,-0.345,-0.14
230.62,-0.355,-0.14
230.62,-0.345,-0.145
230.62,-0.36,-0.145
230.62,-0.355,-0.135
230.63,-0.335,-0.135
230.63,-0.34,-0.135
230.63,-0.34,-0.135
230.64,-0.355,-0.14
230.64,-0.365,-0.155
230.64,-0.365,-0.14
230.64,-0.34,-0.135
230.65,-0.345,-0.14
230.65,-0.34,-0.145
230.65,-0.35,-0.155
230.66,-0.355,-0.145
230.66,-0.35,-0.145
230.66,-0.335,-0.14
230.66,-0.335,-0.14
230.67,-0.34,-0.145
230.67,-0.36,-0.14
230.67,-0.36,-0.145
230.67,-0.345,-0.145
230.68,-0.345,-0.135
230.68,-0.335,-0.14
230.68,-0.335,-0.135
230.69,-0.34,-0.14
230.69,-0.355,-0.135
230.69,-0.335,-0.13
230.69,-0.32,-0.085
230.7,-0.315,-0.08
230.7,-0.31,-0.01
230.7,-0.31,0.2
230.71,-0.285,0.6
230.71,-0.255,0.91
230.71,-0.22,0.87
230.71,-0.125,0.6
230.72,0.07,0.38
230.72,0.395,0.3
230.72,0.665,0.24
230.73,0.71,0.2
230.73,0.47,0.155
230.73,0.22,0.08
230.73,0.085,-0.01
230.74,0.055,-0.145
230.74,0.05,-0.29
230.74,0.065,-0.43
230.74,0.07,-0.6
230.75,0.055,-0.8
230.75,0.055,-1.015
230.75,0.055,-1.23
230.76,0.055,-1.41
230.76,0.08,-1.54
230.76,0.07,-1.65
230.76,0.065,-1.805
230.77,0.045,-1.94
230.77,0.025,-2.125
230.77,0.01,-2.32
230.77,0.015,-2.485
230.78,0.01,-2.585
230.78,-0.01,-2.7
230.78,-0.045,-2.78
230.79,-0.07,-2.875
230.79,-0.115,-2.925
230.79,-0.145,-2.975
230.79,-0.17,-3
230.8,-0.22,-3.025
230.8,-0.285,-3.06
230.8,-0.355,-3.075
230.81,-0.415,-3.09
230.81,-0.495,-3.07
230.81,-0.565,-3.075
230.81,-0.61,-3.075
230.82,-0.63,-3.09
230.82,-0.61,-3.075
230.82,-0.56,-3.08
230.82,-0.505,-3.06
230.83,-0.475,-3.03
230.83,-0.455,-3
230.83,-0.47,-2.975
230.84,-0.48,-2.915
230.84,-0.48,-2.835
230.84,-0.47,-2.695
230.84,-0.465,-2.545
230.85,-0.45,-2.365
230.85,-0.43,-2.165
230.85,-0.405,-1.95
230.86,-0.39,-1.685
230.86,-0.35,-1.43
230.86,-0.325,-1.18
230.86,-0.33,-0.955
230.87,-0.36,-0.745
230.87,-0.38,-0.545
230.87,-0.405,-0.325
230.88,-0.415,-0.13
230.88,-0.425,0.055
230.88,-0.42,0.225
230.88,-0.43,0.365
230.89,-0.42,0.485
230.89,-0.41,0.58
230.89,-0.4,0.66
230.89,-0.39,0.73
230.9,-0.39,0.775
230.9,-0.39,0.8
230.9,-0.415,0.825
230.91,-0.43,0.86
230.91,-0.43,0.905
230.91,-0.42,0.95
230.91,-0.405,0.96
230.92,-0.405,0.98
230.92,-0.41,1.005
230.92,-0.395,1.025
230.92,-0.395,1.06
230.93,-0.385,1.095
230.93,-0.4,1.105
230.93,-0.4,1.11
230.94,-0.41,1.135
230.94,-0.405,1.15
230.94,-0.4,1.19
230.94,-0.385,1.235
230.95,-0.38,1.25
230.95,-0.39,1.27
230.95,-0.415,1.3
230.96,-0.42,1.32
230.96,-0.41,1.355
230.96,-0.395,1.395
230.96,-0.405,1.42
230.97,-0.4,1.45
230.97,-0.4,1.48
230.97,-0.385,1.505
230.98,-0.38,1.56
230.98,-0.365,1.585
230.98,-0.355,1.615
230.98,-0.355,1.63
230.99,-0.365,1.66
230.99,-0.36,1.695
230.99,-0.345,1.735
230.99,-0.335,1.76
231,-0.32,1.785
231,-0.32,1.795
231,-0.325,1.805
231.01,-0.33,1.825
231.01,-0.31,1.86
231.01,-0.31,1.88
231.01,-0.29,1.895
231.02,-0.285,1.895
231.02,-0.275,1.895
231.02,-0.28,1.89
231.02,-0.26,1.9
231.03,-0.245,1.915
231.03,-0.235,1.9
231.03,-0.235,1.875
231.04,-0.24,1.85
231.04,-0.235,1.825
231.04,-0.215,1.815
231.04,-0.195,1.8
231.05,-0.17,1.75
231.05,-0.17,1.72
231.05,-0.175,1.675
231.06,-0.18,1.625
231.06,-0.165,1.59
231.06,-0.155,1.545
231.06,-0.14,1.475
231.07,-0.14,1.405
231.07,-0.145,1.345
231.07,-0.135,1.285
231.07,-0.125,1.225
231.08,-0.12,1.17
231.08,-0.115,1.095
231.08,-0.125,1.025
231.09,-0.13,0.945
231.09,-0.14,0.88
231.09,-0.145,0.825
231.09,-0.14,0.78
231.1,-0.15,0.71
231.1,-0.155,0.63
231.1,-0.17,0.58
231.11,-0.16,0.515
231.11,-0.16,0.485
231.11,-0.145,0.45
231.11,-0.14,0.395
231.12,-0.155,0.34
231.12,-0.175,0.305
231.12,-0.18,0.28
231.12,-0.195,0.265
231.13,-0.2,0.245
231.13,-0.19,0.22
231.13,-0.21,0.19
231.14,-0.225,0.165
231.14,-0.225,0.14
231.14,-0.23,0.135
231.14,-0.245,0.125
231.15,-0.24,0.115
231.15,-0.255,0.105
231.15,-0.265,0.08
231.16,-0.265,0.085
231.16,-0.27,0.075
231.16,-0.255,0.08
231.16,-0.265,0.07
231.17,-0.26,0.05
231.17,-0.275,0.045
231.17,-0.265,0.05
231.17,-0.265,0.06
231.18,-0.26,0.055
231.18,-0.25,0.04
231.18,-0.26,0.045
231.19,-0.285,0.03
231.19,-0.29,0.025
231.19,-0.29,0.04
231.19,-0.29,0.055
231.2,-0.29,0.04
231.2,-0.29,0.035
231.2,-0.3,0.025
231.21,-0.315,0.035
231.21,-0.3,0.03
231.21,-0.3,0.05
231.21,-0.29,0.05
231.22,-0.275,0.035
231.22,-0.28,0.03
231.22,-0.28,0.035
231.23,-0.275,0.03
231.23,-0.28,0.045
231.23,-0.29,0.04
231.23,-0.3,0.03
231.24,-0.315,0.015
231.24,-0.325,0.015
231.24,-0.31,0.02
231.24,-0.295,0.03
231.25,-0.28,0.02
231.25,-0.3,0.005
231.25,-0.32,0.01
231.26,-0.325,0.005
231.26,-0.32,0.02
231.26,-0.305,0.03
231.26,-0.3,0.01
231.27,-0.295,0
231.27,-0.295,-0.01
231.27,-0.315,-0.025
231.27,-0.315,-0.01
231.28,-0.315,-0.015
231.28,-0.31,-0.015
231.28,-0.305,-0.025
231.29,-0.325,-0.035
231.29,-0.335,-0.045
231.29,-0.335,-0.035
231.29,-0.33,-0.03
231.3,-0.34,-0.04
231.3,-0.355,-0.06
231.3,-0.36,-0.07
231.31,-0.355,-0.065
231.31,-0.34,-0.05
231.31,-0.335,-0.06
231.31,-0.32,-0.07
231.32,-0.325,-0.07
231.32,-0.325,-0.085
231.32,-0.335,-0.09
231.32,-0.345,-0.085
231.33,-0.35,-0.09
231.33,-0.34,-0.085
231.33,-0.335,-0.1
231.34,-0.335,-0.1
231.34,-0.35,-0.115
231.34,-0.34,-0.105
231.34,-0.34,-0.105
231.35,-0.325,-0.115
231.35,-0.335,-0.12
231.35,-0.34,-0.13
231.36,-0.345,-0.115
231.36,-0.35,-0.12
231.36,-0.34,-0.12
231.36,-0.34,-0.12
231.37,-0.345,-0.14
231.37,-0.345,-0.14
231.37,-0.35,-0.14
231.38,-0.335,-0.135
231.38,-0.34,-0.125
231.38,-0.345,-0.13
231.38,-0.36,-0.155
231.39,-0.36,-0.155
231.39,-0.345,-0.155
231.39,-0.335,-0.155
231.39,-0.325,-0.145
231.4,-0.32,-0.145
231.4,-0.325,-0.15
231.4,-0.335,-0.17
231.41,-0.355,-0.155
231.41,-0.35,-0.15
231.41,-0.35,-0.14
231.41,-0.335,-0.135
231.42,-0.345,-0.15
231.42,-0.35,-0.16
231.42,-0.35,-0.16
231.42,-0.345,-0.155
231.43,-0.35,-0.145
231.43,-0.34,-0.155
231.43,-0.345,-0.16
231.44,-0.355,-0.17
231.44,-0.345,-0.17
231.44,-0.35,-0.17
231.44,-0.335,-0.155
231.45,-0.335,-0.16
231.45,-0.34,-0.175
231.45,-0.345,-0.18
231.46,-0.35,-0.175
231.46,-0.365,-0.17
231.46,-0.35,-0.155
231.46,-0.345,-0.16
231.47,-0.335,-0.17
231.47,-0.35,-0.18
231.47,-0.36,-0.175
231.48,-0.35,-0.165
231.48,-0.35,-0.155
231.48,-0.34,-0.155
231.48,-0.36,-0.165
231.49,-0.345,-0.175
231.49,-0.34,-0.18
231.49,-0.34,-0.165
231.49,-0.32,-0.155
231.5,-0.31,-0.175
231.5,-0.32,-0.175
231.5,-0.34,-0.17
231.51,-0.355,-0.18
231.51,-0.35,-0.175
231.51,-0.33,-0.165
231.51,-0.315,-0.16
231.52,-0.315,-0.17
231.52,-0.32,-0.18
231.52,-0.325,-0.17
231.52,-0.32,-0.17
231.53,-0.31,-0.15
231.53,-0.305,-0.15
231.53,-0.325,-0.155
231.54,-0.33,-0.165
231.54,-0.32,-0.15
231.54,-0.31,-0.12
231.54,-0.295,-0.105
231.55,-0.26,-0.02
231.55,-0.26,0.165
231.55,-0.235,0.52
231.56,-0.225,0.87
231.56,-0.19,0.905
231.56,-0.125,0.67
231.56,0.025,0.43
231.57,0.34,0.31
231.57,0.655,0.28
231.57,0.71,0.235
231.57,0.515,0.19
231.58,0.27,0.17
231.58,0.145,0.12
231.58,0.115,0.07
231.59,0.125,-0.015
231.59,0.12,-0.13
231.59,0.12,-0.265
231.59,0.12,-0.42
231.6,0.145,-0.64
231.6,0.15,-0.86
231.6,0.165,-1.085
231.61,0.16,-1.325
231.61,0.155,-1.54
231.61,0.155,-1.775
231.61,0.15,-1.985
231.62,0.145,-2.17
231.62,0.15,-2.335
231.62,0.145,-2.465
231.62,0.14,-2.55
231.63,0.15,-2.64
231.63,0.14,-2.73
231.63,0.125,-2.83
231.64,0.095,-2.92
231.64,0.05,-2.985
231.64,-0.015,-3
231.64,-0.085,-3.025
231.65,-0.155,-3.045
231.65,-0.21,-3.06
231.65,-0.26,-3.08
231.66,-0.325,-3.09
231.66,-0.395,-3.085
231.66,-0.475,-3.075
231.66,-0.52,-3.08
231.67,-0.56,-3.095
231.67,-0.56,-3.095
231.67,-0.55,-3.08
231.67,-0.52,-3.07
231.68,-0.51,-3.03
231.68,-0.515,-3.02
231.68,-0.53,-2.985
231.69,-0.55,-2.915
231.69,-0.565,-2.82
231.69,-0.56,-2.67
231.69,-0.555,-2.53
231.7,-0.535,-2.38
231.7,-0.52,-2.195
231.7,-0.49,-1.99
231.71,-0.475,-1.73
231.71,-0.46,-1.475
231.71,-0.45,-1.235
231.71,-0.435,-1.01
231.72,-0.435,-0.79
231.72,-0.435,-0.585
231.72,-0.43,-0.365
231.73,-0.415,-0.17
231.73,-0.395,0
231.73,-0.395,0.14
231.73,-0.395,0.255
231.74,-0.39,0.38
231.74,-0.39,0.495
231.74,-0.385,0.595
231.74,-0.365,0.675
231.75,-0.35,0.72
231.75,-0.355,0.75
231.75,-0.355,0.785
231.76,-0.34,0.805
231.76,-0.315,0.835
231.76,-0.295,0.875
231.76,-0.28,0.89
231.77,-0.275,0.905
231.77,-0.295,0.925
231.77,-0.3,0.94
231.77,-0.31,0.975
231.78,-0.305,1.005
231.78,-0.305,1.02
231.78,-0.3,1.045
231.79,-0.31,1.065
231.79,-0.31,1.11
231.79,-0.31,1.145
231.79,-0.31,1.175
231.8,-0.32,1.18
231.8,-0.335,1.205
231.8,-0.34,1.2
231.81,-0.37,1.245
231.81,-0.36,1.28
231.81,-0.345,1.31
231.81,-0.35,1.33
231.82,-0.36,1.36
231.82,-0.37,1.38
231.82,-0.375,1.42
231.82,-0.37,1.45
231.83,-0.36,1.48
231.83,-0.355,1.5
231.83,-0.36,1.52
231.84,-0.38,1.545
231.84,-0.375,1.57
231.84,-0.365,1.6
231.84,-0.365,1.63
231.85,-0.37,1.655
231.85,-0.38,1.665
231.85,-0.385,1.675
231.86,-0.375,1.71
231.86,-0.37,1.745
231.86,-0.36,1.765
231.86,-0.34,1.775
231.87,-0.35,1.78
231.87,-0.34,1.79
231.87,-0.35,1.795
231.88,-0.335,1.825
231.88,-0.335,1.825
231.88,-0.32,1.83
231.88,-0.32,1.815
231.89,-0.3,1.805
231.89,-0.29,1.795
231.89,-0.27,1.785
231.89,-0.255,1.77
231.9,-0.24,1.74
231.9,-0.225,1.705
231.9,-0.225,1.66
231.91,-0.22,1.625
231.91,-0.205,1.605
231.91,-0.205,1.55
231.91,-0.19,1.505
231.92,-0.17,1.445
231.92,-0.175,1.38
231.92,-0.165,1.31
231.92,-0.16,1.265
231.93,-0.145,1.21
231.93,-0.145,1.15
231.93,-0.145,1.075
231.94,-0.125,1.015
231.94,-0.15,0.95
231.94,-0.13,0.9
231.94,-0.13,0.845
231.95,-0.125,0.785
231.95,-0.13,0.735
231.95,-0.13,0.655
231.96,-0.15,0.615
231.96,-0.145,0.56
231.96,-0.14,0.525
231.96,-0.135,0.475
231.97,-0.155,0.42
231.97,-0.155,0.385
231.97,-0.165,0.35
231.98,-0.165,0.31
231.98,-0.16,0.3
231.98,-0.175,0.27
231.98,-0.19,0.23
231.99,-0.195,0.205
231.99,-0.215,0.18
231.99,-0.195,0.175
231.99,-0.195,0.17
232,-0.2,0.145
232,-0.215,0.115
232,-0.215,0.095
232.01,-0.225,0.09
232.01,-0.23,0.095
232.01,-0.23,0.08
232.01,-0.235,0.08
232.02,-0.235,0.075
232.02,-0.25,0.05
232.02,-0.265,0.045
232.02,-0.25,0.055
232.03,-0.245,0.06
232.03,-0.25,0.05
232.03,-0.255,0.04
232.04,-0.265,0.03
232.04,-0.27,0.04
232.04,-0.27,0.035
232.04,-0.265,0.045
232.05,-0.255,0.05
232.05,-0.265,0.035
232.05,-0.27,0.025
232.06,-0.285,0.03
232.06,-0.275,0.03
232.06,-0.275,0.055
232.06,-0.27,0.04
232.07,-0.28,0.03
232.07,-0.29,0.01
232.07,-0.29,0.015
232.07,-0.28,0.03
232.08,-0.29,0.03
232.08,-0.285,0.04
232.08,-0.285,0.035
232.09,-0.29,0.015
232.09,-0.3,0.015
232.09,-0.285,0.035
232.09,-0.275,0.03
232.1,-0.275,0.025
232.1,-0.285,0.025
232.1,-0.3,0.005
232.11,-0.3,0.005
232.11,-0.29,0.02
232.11,-0.285,0.02
232.11,-0.295,0.01
232.12,-0.29,0
232.12,-0.305,-0.005
232.12,-0.31,-0.01
232.12,-0.32,-0.005
232.13,-0.295,0.005
232.13,-0.295,-0.015
232.13,-0.305,-0.02
232.14,-0.3,-0.03
232.14,-0.305,-0.035
232.14,-0.3,-0.025
232.14,-0.305,-0.03
232.15,-0.295,-0.04
232.15,-0.295,-0.05
232.15,-0.305,-0.065
232.16,-0.32,-0.065
232.16,-0.31,-0.05
232.16,-0.3,-0.05
232.16,-0.31,-0.055
232.17,-0.315,-0.075
232.17,-0.325,-0.085
232.17,-0.325,-0.08
232.17,-0.32,-0.075
232.18,-0.31,-0.075
232.18,-0.31,-0.07
232.18,-0.305,-0.095
232.19,-0.315,-0.095
232.19,-0.33,-0.1
232.19,-0.31,-0.105
232.19,-0.31,-0.09
232.2,-0.305,-0.11
232.2,-0.31,-0.115
232.2,-0.32,-0.135
232.21,-0.34,-0.125
232.21,-0.32,-0.11
232.21,-0.33,-0.11
232.21,-0.325,-0.115
232.22,-0.32,-0.125
232.22,-0.33,-0.14
232.22,-0.325,-0.13
232.23,-0.31,-0.125
232.23,-0.305,-0.12
232.23,-0.305,-0.13
232.23,-0.325,-0.135
232.24,-0.325,-0.145
232.24,-0.335,-0.14
232.24,-0.325,-0.135
232.24,-0.32,-0.135
232.25,-0.305,-0.13
232.25,-0.315,-0.145
232.25,-0.325,-0.155
232.26,-0.33,-0.145
232.26,-0.325,-0.145
232.26,-0.32,-0.145
232.26,-0.325,-0.13
232.27,-0.325,-0.155
232.27,-0.325,-0.16
232.27,-0.335,-0.155
232.27,-0.32,-0.14
232.28,-0.33,-0.15
232.28,-0.33,-0.15
232.28,-0.33,-0.15
232.29,-0.325,-0.165
232.29,-0.325,-0.165
232.29,-0.33,-0.145
232.29,-0.32,-0.135
232.3,-0.305,-0.135
232.3,-0.325,-0.145
232.3,-0.33,-0.155
232.31,-0.325,-0.15
232.31,-0.32,-0.16
232.31,-0.32,-0.135
232.31,-0.325,-0.145
232.32,-0.32,-0.15
232.32,-0.34,-0.165
232.32,-0.345,-0.16
232.32,-0.335,-0.15
232.33,-0.32,-0.145
232.33,-0.33,-0.15
232.33,-0.315,-0.155
232.34,-0.325,-0.155
232.34,-0.335,-0.16
232.34,-0.32,-0.155
232.34,-0.315,-0.15
232.35,-0.31,-0.15
232.35,-0.31,-0.16
232.35,-0.325,-0.175
232.36,-0.325,-0.165
232.36,-0.32,-0.15
232.36,-0.31,-0.145
232.36,-0.31,-0.15
232.37,-0.305,-0.15
232.37,-0.315,-0.165
232.37,-0.325,-0.15
232.38,-0.305,-0.14
232.38,-0.3,-0.13
232.38,-0.295,-0.135
232.38,-0.29,-0.115
232.39,-0.28,-0.085
232.39,-0.29,0.04
232.39,-0.26,0.345
232.39,-0.23,0.73
232.4,-0.2,0.835
232.4,-0.155,0.63
232.4,-0.03,0.375
232.41,0.26,0.28
232.41,0.61,0.265
232.41,0.735,0.235
232.41,0.56,0.2
232.42,0.285,0.16
232.42,0.12,0.115
232.42,0.085,0.065
232.42,0.105,-0.005
232.43,0.125,-0.095
232.43,0.14,-0.245
232.43,0.135,-0.435
232.44,0.14,-0.675
232.44,0.16,-0.9
232.44,0.175,-1.12
232.44,0.19,-1.36
232.45,0.2,-1.62
232.45,0.19,-1.845
232.45,0.165,-2.03
232.46,0.165,-2.205
232.46,0.16,-2.365
232.46,0.185,-2.46
232.46,0.18,-2.56
232.47,0.15,-2.655
232.47,0.135,-2.75
232.47,0.125,-2.83
232.48,0.12,-2.91
232.48,0.095,-2.96
232.48,0.045,-2.995
232.48,-0.015,-3.025
232.49,-0.09,-3.05
232.49,-0.14,-3.07
232.49,-0.18,-3.075
232.49,-0.225,-3.075
232.5,-0.315,-3.08
232.5,-0.405,-3.1
232.5,-0.46,-3.095
232.51,-0.46,-3.105
232.51,-0.435,-3.075
232.51,-0.405,-3.07
232.51,-0.39,-3.065
232.52,-0.39,-3.055
232.52,-0.4,-3.03
232.52,-0.435,-2.97
232.52,-0.445,-2.89
232.53,-0.455,-2.775
232.53,-0.46,-2.66
232.53,-0.48,-2.53
232.54,-0.465,-2.37
232.54,-0.455,-2.18
232.54,-0.43,-1.955
232.54,-0.405,-1.71
232.55,-0.405,-1.485
232.55,-0.405,-1.27
232.55,-0.4,-1.07
232.56,-0.405,-0.825
232.56,-0.38,-0.58
232.56,-0.38,-0.375
232.56,-0.395,-0.19
232.57,-0.41,-0.04
232.57,-0.42,0.105
232.57,-0.425,0.25
232.57,-0.435,0.4
232.58,-0.41,0.515
232.58,-0.39,0.625
232.58,-0.395,0.705
232.59,-0.4,0.735
232.59,-0.395,0.79
232.59,-0.395,0.835
232.59,-0.38,0.88
232.6,-0.375,0.905
232.6,-0.365,0.94
232.6,-0.375,0.95
232.61,-0.385,0.99
232.61,-0.365,1.025
232.61,-0.36,1.05
232.61,-0.36,1.065
232.62,-0.355,1.09
232.62,-0.37,1.115
232.62,-0.385,1.14
232.62,-0.36,1.17
232.63,-0.36,1.195
232.63,-0.36,1.225
232.63,-0.375,1.245
232.64,-0.37,1.255
232.64,-0.38,1.3
232.64,-0.365,1.315
232.64,-0.355,1.35
232.65,-0.35,1.385
232.65,-0.35,1.39
232.65,-0.365,1.415
232.66,-0.365,1.43
232.66,-0.35,1.49
232.66,-0.345,1.52
232.66,-0.335,1.555
232.67,-0.35,1.57
232.67,-0.35,1.605
232.67,-0.36,1.645
232.67,-0.35,1.685
232.68,-0.345,1.725
232.68,-0.34,1.755
232.68,-0.345,1.765
232.69,-0.34,1.79
232.69,-0.34,1.825
232.69,-0.335,1.87
232.69,-0.32,1.885
232.7,-0.32,1.92
232.7,-0.315,1.925
232.7,-0.315,1.955
232.71,-0.31,1.98
232.71,-0.285,2
232.71,-0.26,2.025
232.71,-0.26,2.02
232.72,-0.24,2.015
232.72,-0.255,2.01
232.72,-0.245,2.01
232.73,-0.22,2.005
232.73,-0.22,1.99
232.73,-0.2,1.965
232.73,-0.19,1.935
232.74,-0.175,1.915
232.74,-0.185,1.88
232.74,-0.16,1.86
232.74,-0.145,1.83
232.75,-0.135,1.79
232.75,-0.14,1.735
232.75,-0.15,1.675
232.76,-0.14,1.635
232.76,-0.135,1.595
232.76,-0.115,1.55
232.76,-0.11,1.505
232.77,-0.12,1.445
232.77,-0.115,1.385
232.77,-0.12,1.34
232.77,-0.12,1.29
232.78,-0.11,1.23
232.78,-0.12,1.165
232.78,-0.13,1.095
232.79,-0.14,1.035
232.79,-0.145,0.965
232.79,-0.135,0.92
232.79,-0.125,0.86
232.8,-0.13,0.815
232.8,-0.14,0.735
232.8,-0.14,0.685
232.81,-0.145,0.625
232.81,-0.15,0.585
232.81,-0.14,0.545
232.81,-0.15,0.51
232.82,-0.155,0.445
232.82,-0.17,0.395
232.82,-0.175,0.37
232.82,-0.175,0.345
232.83,-0.17,0.315
232.83,-0.175,0.28
232.83,-0.185,0.245
232.84,-0.2,0.205
232.84,-0.205,0.185
232.84,-0.205,0.175
232.84,-0.195,0.16
232.85,-0.19,0.145
232.85,-0.215,0.115
232.85,-0.225,0.09
232.86,-0.23,0.095
232.86,-0.225,0.075
232.86,-0.23,0.07
232.86,-0.23,0.06
232.87,-0.24,0.045
232.87,-0.245,0.035
232.87,-0.25,0.03
232.88,-0.245,0.035
232.88,-0.235,0.035
232.88,-0.24,0.02
232.88,-0.255,0.015
232.89,-0.25,0.01
232.89,-0.265,0.015
232.89,-0.255,0.025
232.89,-0.255,0.025
232.9,-0.255,0.025
232.9,-0.26,0.005
232.9,-0.275,0.005
232.91,-0.28,0.015
232.91,-0.27,0.015
232.91,-0.265,0.02
232.91,-0.255,0.015
232.92,-0.28,0.005
232.92,-0.29,0
232.92,-0.295,0.005
232.92,-0.275,0.03
232.93,-0.28,0.025
232.93,-0.275,0.015
232.93,-0.28,0.015
232.94,-0.285,0.005
232.94,-0.295,0.02
232.94,-0.285,0.02
232.94,-0.285,0.025
232.95,-0.28,0.02
232.95,-0.28,0.005
232.95,-0.29,-0.005
232.96,-0.3,0
232.96,-0.28,0.015
232.96,-0.275,0.015
232.96,-0.285,0.02
232.97,-0.29,0.01
232.97,-0.295,-0.005
232.97,-0.31,-0.01
232.98,-0.295,0
232.98,-0.295,0.005
232.98,-0.295,-0.005
232.98,-0.31,-0.01
232.99,-0.32,-0.03
232.99,-0.315,-0.025
232.99,-0.305,-0.015
232.99,-0.3,-0.025
233,-0.295,-0.025
233,-0.305,-0.04
233,-0.315,-0.055
233.01,-0.325,-0.06
233.01,-0.32,-0.05
233.01,-0.315,-0.04
233.01,-0.31,-0.065
233.02,-0.315,-0.08
233.02,-0.325,-0.075
233.02,-0.33,-0.085
233.02,-0.32,-0.075
233.03,-0.315,-0.075
233.03,-0.315,-0.08
233.03,-0.325,-0.09
233.04,-0.325,-0.1
233.04,-0.335,-0.11
233.04,-0.33,-0.095
233.04,-0.315,-0.095
233.05,-0.32,-0.09
233.05,-0.335,-0.11
233.05,-0.34,-0.12
233.06,-0.335,-0.12
233.06,-0.335,-0.11
233.06,-0.305,-0.11
233.06,-0.325,-0.11
233.07,-0.325,-0.125
233.07,-0.335,-0.13
233.07,-0.345,-0.14
233.07,-0.335,-0.13
233.08,-0.325,-0.125
233.08,-0.32,-0.13
233.08,-0.325,-0.13
233.09,-0.34,-0.14
233.09,-0.34,-0.15
233.09,-0.335,-0.135
233.09,-0.335,-0.13
233.1,-0.33,-0.135
233.1,-0.35,-0.14
233.1,-0.335,-0.16
233.11,-0.345,-0.155
233.11,-0.35,-0.15
233.11,-0.33,-0.14
233.11,-0.34,-0.155
233.12,-0.33,-0.145
233.12,-0.345,-0.165
233.12,-0.345,-0.155
233.12,-0.335,-0.145
233.13,-0.335,-0.155
233.13,-0.325,-0.15
233.13,-0.34,-0.165
233.14,-0.34,-0.18
233.14,-0.335,-0.16
233.14,-0.34,-0.15
233.14,-0.33,-0.155
233.15,-0.33,-0.155
233.15,-0.335,-0.155
233.15,-0.34,-0.185
233.16,-0.35,-0.175
233.16,-0.335,-0.165
233.16,-0.325,-0.15
233.16,-0.335,-0.16
233.17,-0.325,-0.175
233.17,-0.33,-0.18
233.17,-0.34,-0.175
233.17,-0.32,-0.165
233.18,-0.315,-0.155
233.18,-0.315,-0.16
233.18,-0.315,-0.175
233.19,-0.325,-0.175
233.19,-0.34,-0.18
233.19,-0.325,-0.17
233.19,-0.315,-0.16
233.2,-0.315,-0.165
233.2,-0.315,-0.185
233.2,-0.315,-0.18
233.21,-0.325,-0.18
233.21,-0.32,-0.17
233.21,-0.305,-0.165
233.21,-0.305,-0.17
233.22,-0.315,-0.18
233.22,-0.32,-0.19
233.22,-0.33,-0.19
233.23,-0.31,-0.175
233.23,-0.305,-0.17
233.23,-0.31,-0.175
233.23,-0.315,-0.18
233.24,-0.31,-0.185
233.24,-0.32,-0.18
233.24,-0.31,-0.175
233.24,-0.295,-0.17
233.25,-0.305,-0.16
233.25,-0.29,-0.17
233.25,-0.3,-0.165
233.26,-0.3,-0.145
233.26,-0.295,-0.11
233.26,-0.265,0.01
233.26,-0.24,0.265
233.27,-0.24,0.6
233.27,-0.21,0.72
233.27,-0.18,0.585
233.27,-0.09,0.385
233.28,0.115,0.28
233.28,0.445,0.215
233.28,0.69,0.165
233.29,0.675,0.105
233.29,0.42,0.05
233.29,0.215,-0.005
233.29,0.12,-0.085
233.3,0.11,-0.205
233.3,0.1,-0.36
233.3,0.09,-0.52
233.31,0.085,-0.695
233.31,0.095,-0.885
233.31,0.1,-1.09
233.31,0.105,-1.285
233.32,0.105,-1.44
233.32,0.105,-1.59
233.32,0.085,-1.74
233.32,0.09,-1.86
233.33,0.08,-2.035
233.33,0.075,-2.25
233.33,0.075,-2.455
233.34,0.06,-2.605
233.34,0.035,-2.7
233.34,0.025,-2.77
233.34,-0.015,-2.85
233.35,-0.045,-2.92
233.35,-0.095,-2.985
233.35,-0.145,-3.03
233.36,-0.21,-3.04
233.36,-0.26,-3.045
233.36,-0.3,-3.05
233.36,-0.34,-3.06
233.37,-0.41,-3.075
233.37,-0.485,-3.095
233.37,-0.57,-3.075
233.38,-0.59,-3.08
233.38,-0.585,-3.06
233.38,-0.54,-3.06
233.38,-0.495,-3.06
233.39,-0.46,-3.055
233.39,-0.445,-3.01
233.39,-0.42,-2.95
233.39,-0.42,-2.86
233.4,-0.425,-2.76
233.4,-0.425,-2.63
233.4,-0.43,-2.47
233.41,-0.425,-2.27
233.41,-0.415,-2.045
233.41,-0.38,-1.81
233.41,-0.335,-1.56
233.42,-0.31,-1.3
233.42,-0.295,-1.06
233.42,-0.32,-0.835
233.42,-0.32,-0.63
233.43,-0.325,-0.435
233.43,-0.325,-0.25
233.43,-0.35,-0.11
233.44,-0.36,0.045
233.44,-0.37,0.22
233.44,-0.355,0.365
233.44,-0.35,0.475
233.45,-0.325,0.565
233.45,-0.33,0.62
233.45,-0.325,0.665
233.46,-0.345,0.72
233.46,-0.33,0.76
233.46,-0.315,0.795
233.46,-0.315,0.825
233.47,-0.325,0.865
233.47,-0.315,0.87
233.47,-0.32,0.91
233.48,-0.315,0.955
233.48,-0.305,0.99
233.48,-0.305,1.005
233.48,-0.315,1.035
233.49,-0.32,1.04
233.49,-0.32,1.07
233.49,-0.32,1.1
233.49,-0.3,1.14
233.5,-0.285,1.16
233.5,-0.3,1.165
233.5,-0.3,1.19
233.51,-0.31,1.215
233.51,-0.31,1.255
233.51,-0.28,1.275
233.51,-0.28,1.315
233.52,-0.29,1.325
233.52,-0.3,1.345
233.52,-0.3,1.39
233.52,-0.29,1.415
233.53,-0.28,1.45
233.53,-0.28,1.485
233.53,-0.29,1.51
233.54,-0.285,1.53
233.54,-0.295,1.575
233.54,-0.285,1.61
233.54,-0.265,1.645
233.55,-0.265,1.675
233.55,-0.27,1.7
233.55,-0.27,1.71
233.56,-0.275,1.745
233.56,-0.245,1.775
233.56,-0.22,1.8
233.56,-0.22,1.835
233.57,-0.225,1.85
233.57,-0.24,1.855
233.57,-0.235,1.865
233.57,-0.23,1.89
233.58,-0.215,1.91
233.58,-0.21,1.915
233.58,-0.195,1.91
233.59,-0.205,1.895
233.59,-0.21,1.895
233.59,-0.18,1.89
233.59,-0.18,1.88
233.6,-0.175,1.875
233.6,-0.175,1.845
233.6,-0.18,1.795
233.61,-0.18,1.78
233.61,-0.16,1.73
233.61,-0.15,1.715
233.61,-0.135,1.665
233.62,-0.125,1.605
233.62,-0.125,1.545
233.62,-0.125,1.485
233.62,-0.105,1.435
233.63,-0.085,1.385
233.63,-0.085,1.305
233.63,-0.095,1.23
233.64,-0.105,1.155
233.64,-0.105,1.08
233.64,-0.08,1.03
233.64,-0.08,0.965
233.65,-0.08,0.895
233.65,-0.095,0.82
233.65,-0.11,0.745
233.66,-0.125,0.695
233.66,-0.11,0.655
233.66,-0.115,0.615
233.66,-0.115,0.555
233.67,-0.12,0.495
233.67,-0.135,0.445
233.67,-0.14,0.405
233.67,-0.14,0.365
233.68,-0.135,0.335
233.68,-0.135,0.295
233.68,-0.155,0.245
233.69,-0.16,0.21
233.69,-0.16,0.195
233.69,-0.15,0.18
233.69,-0.16,0.155
233.7,-0.175,0.14
233.7,-0.19,0.105
233.7,-0.205,0.08
233.71,-0.215,0.07
233.71,-0.21,0.08
233.71,-0.205,0.065
233.71,-0.2,0.055
233.72,-0.205,0.04
233.72,-0.225,0.02
233.72,-0.23,0.025
233.73,-0.23,0.03
233.73,-0.24,0.03
233.73,-0.235,0.03
233.73,-0.245,0.015
233.74,-0.25,0.005
233.74,-0.245,0.015
233.74,-0.25,0.03
233.74,-0.23,0.04
233.75,-0.245,0.05
233.75,-0.245,0.045
233.75,-0.255,0.045
233.76,-0.25,0.045
233.76,-0.255,0.065
233.76,-0.25,0.07
233.76,-0.25,0.06
233.77,-0.25,0.05
233.77,-0.265,0.05
233.77,-0.28,0.055
233.77,-0.27,0.06
233.78,-0.27,0.055
233.78,-0.26,0.065
233.78,-0.27,0.045
233.79,-0.27,0.045
233.79,-0.27,0.045
233.79,-0.265,0.04
233.79,-0.255,0.035
233.8,-0.255,0.015
233.8,-0.26,-0.015
233.8,-0.245,-0.03
233.81,-0.245,-0.04
233.81,-0.225,-0.045
233.81,-0.205,-0.05
233.81,-0.215,-0.055
233.82,-0.235,-0.065
233.82,-0.245,-0.09
233.82,-0.255,-0.095
233.82,-0.25,-0.08
233.83,-0.245,-0.09
233.83,-0.26,-0.085
233.83,-0.255,-0.09
233.84,-0.25,-0.09
233.84,-0.26,-0.09
233.84,-0.26,-0.095
233.84,-0.27,-0.09
233.85,-0.29,-0.095
233.85,-0.315,-0.115
233.85,-0.31,-0.115
233.86,-0.31,-0.12
233.86,-0.3,-0.125
233.86,-0.32,-0.115
233.86,-0.315,-0.12
233.87,-0.33,-0.135
233.87,-0.325,-0.135
233.87,-0.34,-0.135
233.88,-0.34,-0.14
233.88,-0.33,-0.13
233.88,-0.325,-0.135
233.88,-0.33,-0.14
233.89,-0.34,-0.16
233.89,-0.365,-0.155
233.89,-0.35,-0.15
233.89,-0.35,-0.15
233.9,-0.335,-0.15
233.9,-0.35,-0.16
233.9,-0.35,-0.18
233.91,-0.36,-0.18
233.91,-0.345,-0.17
233.91,-0.34,-0.175
233.91,-0.335,-0.17
233.92,-0.335,-0.19
233.92,-0.34,-0.205
233.92,-0.35,-0.195
233.92,-0.345,-0.19
233.93,-0.345,-0.185
233.93,-0.34,-0.195
233.93,-0.335,-0.205
233.94,-0.345,-0.215
233.94,-0.355,-0.205
233.94,-0.355,-0.195
233.94,-0.325,-0.195
233.95,-0.34,-0.2
233.95,-0.355,-0.205
233.95,-0.38,-0.205
233.96,-0.385,-0.2
233.96,-0.38,-0.2
233.96,-0.36,-0.195
233.96,-0.355,-0.195
233.97,-0.36,-0.21
233.97,-0.37,-0.205
233.97,-0.365,-0.205
233.98,-0.34,-0.19
233.98,-0.32,-0.185
233.98,-0.325,-0.185
233.98,-0.315,-0.195
233.99,-0.34,-0.21
233.99,-0.35,-0.205
233.99,-0.345,-0.195
233.99,-0.33,-0.18
234,-0.345,-0.19
234,-0.335,-0.19
234,-0.345,-0.21
234.01,-0.355,-0.2
234.01,-0.35,-0.205
234.01,-0.365,-0.195
234.01,-0.36,-0.195
234.02,-0.37,-0.21
234.02,-0.38,-0.21
234.02,-0.385,-0.195
234.02,-0.355,-0.195
234.03,-0.345,-0.19
234.03,-0.345,-0.185
234.03,-0.35,-0.205
234.04,-0.35,-0.21
234.04,-0.35,-0.21
234.04,-0.345,-0.185
234.04,-0.345,-0.185
234.05,-0.34,-0.19
234.05,-0.34,-0.205
234.05,-0.345,-0.215
234.06,-0.355,-0.21
234.06,-0.34,-0.195
234.06,-0.305,-0.18
234.06,-0.31,-0.175
234.07,-0.315,-0.195
234.07,-0.34,-0.19
234.07,-0.335,-0.17
234.07,-0.325,-0.14
234.08,-0.315,-0.09
234.08,-0.29,0.055
234.08,-0.275,0.35
234.09,-0.25,0.72
234.09,-0.225,0.9
234.09,-0.17,0.74
234.09,-0.06,0.475
234.1,0.18,0.315
234.1,0.525,0.26
234.1,0.715,0.215
234.11,0.645,0.18
234.11,0.375,0.14
234.11,0.18,0.105
234.11,0.115,0.03
234.12,0.115,-0.055
234.12,0.115,-0.185
234.12,0.115,-0.34
234.12,0.13,-0.535
234.13,0.14,-0.745
234.13,0.15,-1
234.13,0.15,-1.245
234.14,0.155,-1.5
234.14,0.14,-1.765
234.14,0.125,-1.985
234.14,0.11,-2.15
234.15,0.095,-2.305
234.15,0.1,-2.44
234.15,0.105,-2.54
234.16,0.115,-2.61
234.16,0.125,-2.64
234.16,0.12,-2.705
234.16,0.115,-2.795
234.17,0.085,-2.89
234.17,0.065,-2.955
234.17,0.01,-2.97
234.17,-0.05,-3
234.18,-0.09,-3.01
234.18,-0.135,-3.035
234.18,-0.2,-3.06
234.19,-0.275,-3.08
234.19,-0.365,-3.085
234.19,-0.435,-3.065
234.19,-0.465,-3.06
234.2,-0.475,-3.06
234.2,-0.465,-3.065
234.2,-0.47,-3.055
234.21,-0.455,-3.015
234.21,-0.44,-2.97
234.21,-0.42,-2.875
234.21,-0.425,-2.79
234.22,-0.445,-2.69
234.22,-0.485,-2.545
234.22,-0.48,-2.375
234.23,-0.445,-2.205
234.23,-0.415,-2.015
234.23,-0.41,-1.8
234.23,-0.425,-1.585
234.24,-0.44,-1.385
234.24,-0.465,-1.17
234.24,-0.435,-0.98
234.24,-0.405,-0.775
234.25,-0.39,-0.58
234.25,-0.395,-0.405
234.25,-0.405,-0.24
234.26,-0.425,-0.09
234.26,-0.42,0.06
234.26,-0.425,0.185
234.26,-0.425,0.285
234.27,-0.43,0.395
234.27,-0.43,0.47
234.27,-0.42,0.565
234.27,-0.405,0.64
234.28,-0.385,0.68
234.28,-0.385,0.72
234.28,-0.375,0.75
234.29,-0.375,0.785
234.29,-0.375,0.825
234.29,-0.375,0.86
234.29,-0.365,0.9
234.3,-0.36,0.935
234.3,-0.37,0.96
234.3,-0.38,0.985
234.31,-0.37,1.035
234.31,-0.38,1.065
234.31,-0.37,1.11
234.31,-0.375,1.14
234.32,-0.375,1.16
234.32,-0.375,1.18
234.32,-0.37,1.23
234.32,-0.34,1.275
234.33,-0.32,1.31
234.33,-0.315,1.35
234.33,-0.33,1.375
234.34,-0.33,1.405
234.34,-0.35,1.455
234.34,-0.33,1.5
234.34,-0.32,1.54
234.35,-0.305,1.575
234.35,-0.315,1.605
234.35,-0.315,1.635
234.36,-0.32,1.67
234.36,-0.315,1.73
234.36,-0.305,1.76
234.36,-0.31,1.775
234.37,-0.305,1.8
234.37,-0.295,1.825
234.37,-0.29,1.85
234.38,-0.27,1.89
234.38,-0.255,1.9
234.38,-0.24,1.91
234.38,-0.245,1.925
234.39,-0.245,1.915
234.39,-0.235,1.925
234.39,-0.235,1.945
234.39,-0.23,1.945
234.4,-0.22,1.935
234.4,-0.205,1.915
234.4,-0.2,1.89
234.41,-0.195,1.875
234.41,-0.185,1.855
234.41,-0.17,1.82
234.41,-0.16,1.79
234.42,-0.155,1.74
234.42,-0.15,1.68
234.42,-0.155,1.64
