439.79,-0.26,-0.125
439.79,-0.25,-0.125
439.79,-0.24,-0.13
439.79,-0.26,-0.125
439.8,-0.255,-0.145
439.8,-0.275,-0.14
439.8,-0.27,-0.135
439.81,-0.265,-0.125
439.81,-0.265,-0.125
439.81,-0.275,-0.145
439.81,-0.275,-0.145
439.82,-0.285,-0.15
439.82,-0.275,-0.14
439.82,-0.26,-0.14
439.83,-0.26,-0.14
439.83,-0.26,-0.15
439.83,-0.27,-0.16
439.83,-0.28,-0.16
439.84,-0.275,-0.16
439.84,-0.27,-0.15
439.84,-0.27,-0.15
439.84,-0.27,-0.155
439.85,-0.28,-0.185
439.85,-0.29,-0.175
439.85,-0.285,-0.16
439.86,-0.285,-0.155
439.86,-0.27,-0.145
439.86,-0.28,-0.16
439.86,-0.285,-0.17
439.87,-0.295,-0.18
439.87,-0.3,-0.165
439.87,-0.285,-0.16
439.88,-0.285,-0.16
439.88,-0.295,-0.175
439.88,-0.29,-0.17
439.88,-0.305,-0.185
439.89,-0.295,-0.185
439.89,-0.285,-0.16
439.89,-0.285,-0.175
439.89,-0.3,-0.17
439.9,-0.305,-0.18
439.9,-0.31,-0.175
439.9,-0.305,-0.17
439.91,-0.3,-0.16
439.91,-0.295,-0.175
439.91,-0.295,-0.165
439.91,-0.295,-0.185
439.92,-0.295,-0.19
439.92,-0.29,-0.175
439.92,-0.29,-0.165
439.92,-0.285,-0.17
439.93,-0.3,-0.165
439.93,-0.305,-0.175
439.93,-0.31,-0.17
439.94,-0.295,-0.16
439.94,-0.31,-0.16
439.94,-0.29,-0.155
439.94,-0.275,-0.15
439.95,-0.28,-0.155
439.95,-0.29,-0.15
439.95,-0.28,-0.13
439.96,-0.27,-0.075
439.96,-0.265,0.015
439.96,-0.25,0.25
439.96,-0.235,0.625
439.97,-0.205,0.935
439.97,-0.15,0.9
439.97,-0.04,0.63
439.97,0.21,0.415
439.98,0.605,0.325
439.98,0.88,0.285
439.98,0.805,0.26
439.99,0.485,0.24
439.99,0.225,0.215
439.99,0.13,0.165
439.99,0.15,0.085
440,0.165,-0.01
440,0.165,-0.14
440,0.185,-0.31
440.01,0.195,-0.52
440.01,0.215,-0.75
440.01,0.215,-1.01
440.01,0.235,-1.28
440.02,0.225,-1.575
440.02,0.23,-1.815
440.02,0.22,-2.015
440.02,0.21,-2.215
440.03,0.215,-2.405
440.03,0.22,-2.535
440.03,0.2,-2.63
440.04,0.185,-2.735
440.04,0.18,-2.83
440.04,0.16,-2.945
440.04,0.14,-3.05
440.05,0.095,-3.115
440.05,0.02,-3.15
440.05,-0.055,-3.16
440.06,-0.12,-3.185
440.06,-0.145,-3.205
440.06,-0.185,-3.22
440.06,-0.27,-3.235
440.07,-0.375,-3.245
440.07,-0.455,-3.24
440.07,-0.495,-3.24
440.08,-0.485,-3.245
440.08,-0.48,-3.23
440.08,-0.445,-3.225
440.08,-0.45,-3.215
440.09,-0.45,-3.19
440.09,-0.46,-3.11
440.09,-0.475,-3.07
440.09,-0.485,-2.95
440.1,-0.51,-2.835
440.1,-0.515,-2.7
440.1,-0.5,-2.52
440.11,-0.47,-2.34
440.11,-0.455,-2.105
440.11,-0.43,-1.87
440.11,-0.425,-1.615
440.12,-0.435,-1.38
440.12,-0.43,-1.15
440.12,-0.42,-0.925
440.12,-0.41,-0.68
440.13,-0.415,-0.475
440.13,-0.425,-0.3
440.13,-0.445,-0.13
440.14,-0.45,0.045
440.14,-0.465,0.195
440.14,-0.455,0.34
440.14,-0.455,0.47
440.15,-0.45,0.565
440.15,-0.435,0.65
440.15,-0.42,0.73
440.16,-0.425,0.785
440.16,-0.415,0.82
440.16,-0.42,0.855
440.16,-0.425,0.87
440.17,-0.415,0.91
440.17,-0.41,0.935
440.17,-0.395,0.99
440.17,-0.4,1.005
440.18,-0.4,1.03
440.18,-0.41,1.05
440.18,-0.415,1.075
440.19,-0.41,1.105
440.19,-0.41,1.125
440.19,-0.41,1.16
440.19,-0.405,1.175
440.2,-0.41,1.195
440.2,-0.43,1.22
440.2,-0.42,1.25
440.21,-0.41,1.29
440.21,-0.41,1.31
440.21,-0.41,1.33
440.21,-0.415,1.34
440.22,-0.425,1.37
440.22,-0.415,1.425
440.22,-0.41,1.445
440.22,-0.41,1.475
440.23,-0.405,1.495
440.23,-0.425,1.52
440.23,-0.42,1.55
440.24,-0.415,1.575
440.24,-0.41,1.63
440.24,-0.4,1.65
440.24,-0.405,1.685
440.25,-0.41,1.705
440.25,-0.415,1.72
440.25,-0.405,1.77
440.26,-0.39,1.81
440.26,-0.365,1.845
440.26,-0.365,1.855
440.26,-0.38,1.885
440.27,-0.38,1.9
440.27,-0.375,1.94
440.27,-0.355,1.975
440.27,-0.36,1.985
440.28,-0.35,1.99
440.28,-0.35,2
440.28,-0.36,2.01
440.29,-0.335,2.025
440.29,-0.325,2.04
440.29,-0.3,2.04
440.29,-0.31,2.035
440.3,-0.31,2.015
440.3,-0.3,2
440.3,-0.3,1.995
440.31,-0.27,1.975
440.31,-0.255,1.94
440.31,-0.23,1.91
440.31,-0.23,1.855
440.32,-0.23,1.795
440.32,-0.205,1.76
440.32,-0.2,1.715
440.33,-0.18,1.645
440.33,-0.17,1.57
440.33,-0.165,1.495
440.33,-0.14,1.425
440.34,-0.125,1.365
440.34,-0.115,1.31
440.34,-0.105,1.22
440.34,-0.11,1.165
440.35,-0.115,1.08
440.35,-0.115,1.01
440.35,-0.11,0.945
440.36,-0.1,0.88
440.36,-0.095,0.82
440.36,-0.085,0.755
440.36,-0.105,0.715
440.37,-0.12,0.665
440.37,-0.125,0.61
440.37,-0.13,0.58
440.38,-0.14,0.525
440.38,-0.16,0.465
440.38,-0.175,0.41
440.38,-0.19,0.375
440.39,-0.185,0.35
440.39,-0.18,0.33
440.39,-0.17,0.29
440.39,-0.185,0.255
440.4,-0.205,0.22
440.4,-0.21,0.19
440.4,-0.22,0.175
440.41,-0.215,0.17
440.41,-0.215,0.145
440.41,-0.23,0.125
440.41,-0.23,0.1
440.42,-0.255,0.09
440.42,-0.255,0.075
440.42,-0.235,0.08
440.42,-0.245,0.07
440.43,-0.255,0.06
440.43,-0.265,0.045
440.43,-0.27,0.04
440.44,-0.27,0.045
440.44,-0.265,0.045
440.44,-0.265,0.04
440.44,-0.265,0.025
440.45,-0.275,0.02
440.45,-0.29,0.015
440.45,-0.285,0.02
440.46,-0.275,0.025
440.46,-0.26,0.02
440.46,-0.275,0.015
440.46,-0.28,-0.005
440.47,-0.295,0.01
440.47,-0.285,0.015
440.47,-0.265,0.015
440.47,-0.27,0.025
440.48,-0.27,0.025
440.48,-0.29,0
440.48,-0.295,0.01
440.49,-0.29,0.025
440.49,-0.29,0.03
440.49,-0.28,0.02
440.49,-0.285,0.025
440.5,-0.295,0.015
440.5,-0.295,0.015
440.5,-0.295,0.02
440.51,-0.29,0.035
440.51,-0.285,0.035
440.51,-0.28,0.03
440.51,-0.3,0.02
440.52,-0.305,0.005
440.52,-0.305,0.03
440.52,-0.29,0.035
440.52,-0.295,0.045
440.53,-0.305,0.035
440.53,-0.31,0.015
440.53,-0.31,0.02
440.54,-0.31,0.025
440.54,-0.32,0.03
440.54,-0.305,0.025
440.54,-0.305,0.015
440.55,-0.32,0.005
440.55,-0.315,-0.01
440.55,-0.32,0
440.56,-0.305,0
440.56,-0.31,-0.01
440.56,-0.315,-0.015
440.56,-0.32,-0.02
440.57,-0.33,-0.03
440.57,-0.33,-0.015
440.57,-0.32,-0.015
440.58,-0.31,-0.015
440.58,-0.32,-0.025
440.58,-0.335,-0.04
440.58,-0.335,-0.045
440.59,-0.335,-0.045
440.59,-0.33,-0.04
440.59,-0.325,-0.05
440.59,-0.32,-0.045
440.6,-0.335,-0.065
440.6,-0.34,-0.07
440.6,-0.35,-0.065
440.61,-0.34,-0.075
440.61,-0.34,-0.08
440.61,-0.335,-0.085
440.61,-0.335,-0.1
440.62,-0.35,-0.1
440.62,-0.345,-0.095
440.62,-0.33,-0.08
440.62,-0.34,-0.095
440.63,-0.33,-0.095
440.63,-0.335,-0.115
440.63,-0.355,-0.12
440.64,-0.355,-0.105
440.64,-0.355,-0.1
440.64,-0.34,-0.1
440.64,-0.335,-0.12
440.65,-0.34,-0.12
440.65,-0.35,-0.115
440.65,-0.35,-0.125
440.66,-0.345,-0.12
440.66,-0.33,-0.125
440.66,-0.335,-0.135
440.66,-0.345,-0.13
440.67,-0.35,-0.14
440.67,-0.345,-0.13
440.67,-0.335,-0.115
440.67,-0.335,-0.115
440.68,-0.325,-0.13
440.68,-0.325,-0.14
440.68,-0.34,-0.14
440.69,-0.335,-0.13
440.69,-0.335,-0.125
440.69,-0.33,-0.13
440.69,-0.325,-0.14
440.7,-0.325,-0.15
440.7,-0.34,-0.15
440.7,-0.33,-0.15
440.71,-0.33,-0.14
440.71,-0.315,-0.15
440.71,-0.295,-0.135
440.71,-0.32,-0.155
440.72,-0.32,-0.145
440.72,-0.32,-0.14
440.72,-0.315,-0.13
440.72,-0.305,-0.145
440.73,-0.315,-0.15
440.73,-0.315,-0.16
440.73,-0.32,-0.16
440.74,-0.325,-0.155
440.74,-0.32,-0.145
440.74,-0.31,-0.14
440.74,-0.32,-0.15
440.75,-0.32,-0.16
440.75,-0.33,-0.16
440.75,-0.32,-0.145
440.76,-0.315,-0.145
440.76,-0.305,-0.145
440.76,-0.3,-0.16
440.76,-0.315,-0.16
440.77,-0.315,-0.165
440.77,-0.31,-0.15
440.77,-0.3,-0.14
440.77,-0.285,-0.145
440.78,-0.285,-0.135
440.78,-0.29,-0.15
440.78,-0.3,-0.15
440.79,-0.295,-0.145
440.79,-0.285,-0.13
440.79,-0.28,-0.11
440.79,-0.27,-0.09
440.8,-0.26,0.005
440.8,-0.26,0.24
440.8,-0.235,0.66
440.81,-0.185,0.965
440.81,-0.13,0.89
440.81,-0.015,0.6
440.81,0.22,0.395
440.82,0.595,0.3
440.82,0.875,0.285
440.82,0.83,0.24
440.83,0.525,0.2
440.83,0.24,0.16
440.83,0.135,0.095
440.83,0.125,0.03
440.84,0.155,-0.08
440.84,0.17,-0.21
440.84,0.195,-0.39
440.84,0.195,-0.625
440.85,0.2,-0.87
440.85,0.195,-1.115
440.85,0.205,-1.375
440.86,0.22,-1.625
440.86,0.225,-1.895
440.86,0.205,-2.11
440.86,0.185,-2.285
440.87,0.19,-2.46
440.87,0.21,-2.595
440.87,0.225,-2.695
440.88,0.22,-2.8
440.88,0.22,-2.905
440.88,0.185,-2.995
440.88,0.175,-3.09
440.89,0.15,-3.14
440.89,0.105,-3.175
440.89,0.035,-3.21
440.89,-0.035,-3.23
440.9,-0.095,-3.25
440.9,-0.15,-3.265
440.9,-0.225,-3.27
440.91,-0.3,-3.265
440.91,-0.375,-3.26
440.91,-0.41,-3.27
440.91,-0.415,-3.28
440.92,-0.395,-3.28
440.92,-0.365,-3.26
440.92,-0.345,-3.245
440.92,-0.36,-3.205
440.93,-0.365,-3.195
440.93,-0.38,-3.135
440.93,-0.42,-3.06
440.94,-0.44,-2.945
440.94,-0.445,-2.825
440.94,-0.44,-2.69
440.94,-0.43,-2.545
440.95,-0.425,-2.355
440.95,-0.425,-2.135
440.95,-0.405,-1.87
440.96,-0.4,-1.635
440.96,-0.39,-1.385
440.96,-0.39,-1.165
440.96,-0.4,-0.92
440.97,-0.4,-0.685
440.97,-0.405,-0.46
440.97,-0.405,-0.26
440.97,-0.4,-0.105
440.98,-0.42,0.045
440.98,-0.43,0.195
440.98,-0.44,0.35
440.99,-0.44,0.5
440.99,-0.415,0.61
440.99,-0.4,0.685
440.99,-0.4,0.74
441,-0.415,0.78
441,-0.41,0.82
441,-0.4,0.87
441.01,-0.395,0.915
441.01,-0.375,0.945
441.01,-0.375,0.97
441.01,-0.37,0.995
441.02,-0.38,1.02
441.02,-0.38,1.065
441.02,-0.38,1.1
441.02,-0.37,1.12
441.03,-0.37,1.14
441.03,-0.38,1.15
441.03,-0.39,1.175
441.04,-0.375,1.215
441.04,-0.38,1.255
441.04,-0.38,1.255
441.04,-0.38,1.285
441.05,-0.385,1.3
441.05,-0.385,1.325
441.05,-0.39,1.36
441.06,-0.375,1.395
441.06,-0.37,1.42
441.06,-0.38,1.44
441.06,-0.385,1.45
441.07,-0.395,1.485
441.07,-0.385,1.515
441.07,-0.38,1.565
441.08,-0.375,1.58
441.08,-0.37,1.61
441.08,-0.385,1.615
441.08,-0.395,1.65
441.09,-0.395,1.695
441.09,-0.39,1.72
441.09,-0.39,1.745
441.09,-0.39,1.765
441.1,-0.4,1.785
441.1,-0.405,1.815
441.1,-0.385,1.84
441.11,-0.38,1.875
441.11,-0.37,1.9
441.11,-0.375,1.92
441.11,-0.36,1.93
441.12,-0.36,1.95
441.12,-0.36,1.97
441.12,-0.335,1.995
441.12,-0.31,1.995
441.13,-0.315,2.005
441.13,-0.3,2.005
441.13,-0.31,2.005
441.14,-0.29,2.015
441.14,-0.28,2.02
441.14,-0.27,2.01
441.14,-0.265,1.985
441.15,-0.26,1.97
441.15,-0.255,1.935
441.15,-0.25,1.905
441.16,-0.235,1.89
441.16,-0.22,1.85
441.16,-0.215,1.815
441.16,-0.205,1.755
441.17,-0.2,1.695
441.17,-0.185,1.635
441.17,-0.17,1.6
441.17,-0.14,1.53
441.18,-0.14,1.465
441.18,-0.135,1.395
441.18,-0.135,1.32
441.19,-0.135,1.27
441.19,-0.12,1.2
441.19,-0.105,1.14
441.19,-0.11,1.065
441.2,-0.125,0.995
441.2,-0.12,0.915
441.2,-0.105,0.875
441.21,-0.115,0.815
441.21,-0.105,0.75
441.21,-0.105,0.695
441.21,-0.105,0.62
441.22,-0.125,0.575
441.22,-0.12,0.53
441.22,-0.115,0.49
441.22,-0.11,0.455
441.23,-0.135,0.405
441.23,-0.135,0.36
441.23,-0.165,0.31
441.24,-0.16,0.29
441.24,-0.15,0.265
441.24,-0.15,0.245
441.24,-0.155,0.215
441.25,-0.165,0.185
441.25,-0.18,0.16
441.25,-0.19,0.155
441.26,-0.2,0.155
441.26,-0.19,0.145
441.26,-0.195,0.12
441.26,-0.2,0.11
441.27,-0.21,0.095
441.27,-0.215,0.105
441.27,-0.205,0.115
441.27,-0.205,0.105
441.28,-0.21,0.095
441.28,-0.22,0.085
441.28,-0.23,0.095
441.29,-0.215,0.095
441.29,-0.21,0.095
441.29,-0.215,0.085
441.29,-0.225,0.08
441.3,-0.22,0.085
441.3,-0.23,0.08
441.3,-0.235,0.085
441.31,-0.22,0.085
441.31,-0.2,0.08
441.31,-0.215,0.065
441.31,-0.215,0.05
441.32,-0.235,0.04
441.32,-0.23,0.03
441.32,-0.21,0.03
441.33,-0.195,0.01
441.33,-0.205,0.005
441.33,-0.21,-0.015
441.33,-0.22,-0.025
441.34,-0.22,-0.015
441.34,-0.22,-0.01
441.34,-0.215,-0.025
441.34,-0.215,-0.03
441.35,-0.22,-0.04
441.35,-0.225,-0.045
441.35,-0.225,-0.035
441.36,-0.22,-0.02
441.36,-0.225,0
441.36,-0.225,0
441.36,-0.235,-0.02
441.37,-0.235,-0.03
441.37,-0.245,-0.025
441.37,-0.26,-0.015
441.38,-0.27,-0.025
441.38,-0.285,-0.03
441.38,-0.29,-0.03
441.38,-0.295,-0.04
441.39,-0.285,-0.025
441.39,-0.275,-0.03
441.39,-0.28,-0.03
441.39,-0.285,-0.035
441.4,-0.305,-0.05
441.4,-0.305,-0.05
441.4,-0.315,-0.04
441.41,-0.295,-0.04
441.41,-0.3,-0.045
441.41,-0.305,-0.055
441.41,-0.315,-0.06
441.42,-0.31,-0.08
441.42,-0.31,-0.07
441.42,-0.305,-0.06
441.42,-0.305,-0.08
441.43,-0.315,-0.09
441.43,-0.33,-0.1
441.43,-0.33,-0.115
441.44,-0.335,-0.1
441.44,-0.325,-0.095
441.44,-0.295,-0.105
441.44,-0.305,-0.12
441.45,-0.315,-0.135
441.45,-0.335,-0.135
441.45,-0.33,-0.125
441.46,-0.32,-0.115
441.46,-0.325,-0.125
441.46,-0.325,-0.13
441.46,-0.34,-0.15
441.47,-0.34,-0.15
441.47,-0.33,-0.145
441.47,-0.33,-0.135
441.47,-0.33,-0.145
441.48,-0.32,-0.15
441.48,-0.34,-0.15
441.48,-0.34,-0.175
441.49,-0.335,-0.165
441.49,-0.33,-0.155
441.49,-0.315,-0.165
441.49,-0.32,-0.17
441.5,-0.34,-0.17
441.5,-0.355,-0.175
441.5,-0.355,-0.165
441.51,-0.345,-0.155
441.51,-0.325,-0.155
441.51,-0.325,-0.17
441.51,-0.325,-0.185
441.52,-0.34,-0.175
441.52,-0.34,-0.175
441.52,-0.325,-0.17
441.52,-0.315,-0.17
441.53,-0.33,-0.165
441.53,-0.325,-0.18
441.53,-0.33,-0.19
441.54,-0.32,-0.175
441.54,-0.32,-0.165
441.54,-0.315,-0.175
441.54,-0.325,-0.18
441.55,-0.33,-0.185
441.55,-0.355,-0.19
441.55,-0.345,-0.17
441.56,-0.33,-0.16
441.56,-0.315,-0.18
441.56,-0.325,-0.175
441.56,-0.315,-0.175
441.57,-0.335,-0.175
441.57,-0.335,-0.18
441.57,-0.315,-0.175
441.58,-0.32,-0.18
441.58,-0.305,-0.18
441.58,-0.315,-0.195
441.58,-0.34,-0.18
441.59,-0.34,-0.175
441.59,-0.33,-0.175
441.59,-0.335,-0.18
441.59,-0.315,-0.185
441.6,-0.32,-0.19
441.6,-0.31,-0.19
441.6,-0.31,-0.18
441.61,-0.305,-0.17
441.61,-0.31,-0.16
441.61,-0.305,-0.175
441.61,-0.305,-0.18
441.62,-0.315,-0.185
441.62,-0.31,-0.18
441.62,-0.315,-0.17
441.62,-0.3,-0.17
441.63,-0.29,-0.17
441.63,-0.285,-0.175
441.63,-0.295,-0.17
441.64,-0.285,-0.16
441.64,-0.285,-0.14
441.64,-0.275,-0.125
441.64,-0.28,-0.09
441.65,-0.27,0.015
441.65,-0.26,0.32
441.65,-0.23,0.75
441.66,-0.195,1
441.66,-0.13,0.855
441.66,-0.02,0.565
441.66,0.25,0.355
441.67,0.65,0.285
441.67,0.915,0.25
441.67,0.815,0.22
441.67,0.51,0.165
441.68,0.245,0.12
441.68,0.155,0.04
441.68,0.16,-0.055
441.69,0.18,-0.17
441.69,0.19,-0.315
441.69,0.21,-0.54
441.69,0.21,-0.79
441.7,0.23,-1.065
441.7,0.22,-1.335
441.7,0.235,-1.585
441.71,0.23,-1.845
441.71,0.21,-2.095
441.71,0.17,-2.3
441.71,0.14,-2.485
441.72,0.145,-2.615
441.72,0.155,-2.71
441.72,0.175,-2.77
441.72,0.18,-2.83
441.73,0.185,-2.9
441.73,0.16,-3.005
441.73,0.14,-3.1
441.74,0.11,-3.155
441.74,0.07,-3.17
441.74,0.015,-3.19
441.74,-0.025,-3.225
441.75,-0.06,-3.255
441.75,-0.11,-3.27
441.75,-0.17,-3.28
441.76,-0.26,-3.275
441.76,-0.34,-3.27
441.76,-0.375,-3.28
441.76,-0.375,-3.29
441.77,-0.355,-3.285
441.77,-0.31,-3.26
441.77,-0.3,-3.23
441.77,-0.305,-3.19
441.78,-0.325,-3.15
441.78,-0.36,-3.075
441.78,-0.38,-2.985
441.79,-0.41,-2.865
441.79,-0.43,-2.715
441.79,-0.425,-2.57
441.79,-0.41,-2.41
441.8,-0.39,-2.23
441.8,-0.385,-2.005
441.8,-0.37,-1.755
441.81,-0.385,-1.515
441.81,-0.405,-1.295
441.81,-0.41,-1.095
441.81,-0.395,-0.88
441.82,-0.405,-0.66
441.82,-0.395,-0.445
441.82,-0.39,-0.255
441.83,-0.4,-0.1
441.83,-0.415,0.045
441.83,-0.44,0.17
441.83,-0.445,0.305
441.84,-0.425,0.44
441.84,-0.4,0.56
441.84,-0.395,0.635
441.84,-0.395,0.685
441.85,-0.4,0.715
441.85,-0.405,0.76
441.85,-0.395,0.81
441.86,-0.385,0.855
441.86,-0.365,0.885
441.86,-0.355,0.905
441.86,-0.355,0.935
441.87,-0.35,0.97
441.87,-0.355,1.015
441.87,-0.34,1.05
441.88,-0.35,1.09
441.88,-0.345,1.105
441.88,-0.35,1.13
441.88,-0.365,1.16
441.89,-0.37,1.185
441.89,-0.365,1.245
441.89,-0.365,1.275
441.89,-0.38,1.295
441.9,-0.36,1.32
441.9,-0.355,1.345
441.9,-0.34,1.395
441.91,-0.33,1.435
441.91,-0.33,1.47
441.91,-0.34,1.5
441.91,-0.34,1.53
441.92,-0.35,1.565
441.92,-0.33,1.61
441.92,-0.325,1.65
441.92,-0.315,1.69
441.93,-0.335,1.71
441.93,-0.335,1.745
441.93,-0.345,1.76
441.94,-0.335,1.81
441.94,-0.34,1.855
441.94,-0.345,1.875
441.94,-0.335,1.895
441.95,-0.33,1.915
441.95,-0.315,1.94
441.95,-0.285,1.985
441.96,-0.265,2
441.96,-0.25,2
441.96,-0.24,2.015
441.96,-0.245,2.015
441.97,-0.24,2.02
441.97,-0.235,2.04
441.97,-0.23,2.04
441.97,-0.205,2.03
441.98,-0.205,2.02
441.98,-0.205,1.995
441.98,-0.21,1.965
441.99,-0.195,1.945
441.99,-0.165,1.935
441.99,-0.165,1.9
441.99,-0.17,1.84
442,-0.17,1.795
442,-0.165,1.75
442,-0.14,1.715
442.01,-0.1,1.67
442.01,-0.08,1.605
442.01,-0.085,1.54
442.01,-0.09,1.47
442.02,-0.1,1.41
442.02,-0.1,1.355
442.02,-0.09,1.305
442.02,-0.08,1.24
442.03,-0.085,1.175
442.03,-0.08,1.1
442.03,-0.095,1.045
442.04,-0.085,0.995
442.04,-0.085,0.95
442.04,-0.08,0.895
442.04,-0.085,0.82
442.05,-0.09,0.775
442.05,-0.105,0.7
442.05,-0.1,0.66
442.06,-0.09,0.615
442.06,-0.1,0.56
442.06,-0.105,0.51
442.06,-0.12,0.475
442.07,-0.125,0.425
442.07,-0.13,0.4
442.07,-0.14,0.37
442.08,-0.13,0.34
442.08,-0.135,0.29
442.08,-0.13,0.265
442.08,-0.14,0.235
442.09,-0.14,0.22
442.09,-0.13,0.2
442.09,-0.13,0.17
442.09,-0.15,0.155
442.1,-0.185,0.125
442.1,-0.205,0.095
442.1,-0.195,0.1
442.11,-0.165,0.095
442.11,-0.13,0.075
442.11,-0.14,0.065
442.11,-0.155,0.045
442.12,-0.165,0.03
442.12,-0.155,0.03
442.12,-0.15,0.015
442.12,-0.135,-0.005
442.13,-0.13,-0.005
442.13,-0.15,-0.015
442.13,-0.175,-0.025
442.14,-0.175,-0.02
442.14,-0.165,-0.025
442.14,-0.165,-0.035
442.14,-0.165,-0.04
442.15,-0.16,-0.04
442.15,-0.175,-0.05
442.15,-0.17,-0.04
442.16,-0.16,-0.035
442.16,-0.155,-0.035
442.16,-0.175,-0.05
442.16,-0.185,-0.065
442.17,-0.2,-0.065
442.17,-0.19,-0.055
442.17,-0.18,-0.045
442.17,-0.17,-0.045
442.18,-0.175,-0.05
442.18,-0.19,-0.06
442.18,-0.2,-0.065
442.19,-0.185,-0.055
442.19,-0.175,-0.035
442.19,-0.16,-0.04
442.19,-0.17,-0.05
442.2,-0.18,-0.06
442.2,-0.21,-0.08
442.2,-0.195,-0.06
442.21,-0.19,-0.05
442.21,-0.185,-0.05
442.21,-0.185,-0.065
442.21,-0.195,-0.07
442.22,-0.195,-0.07
442.22,-0.21,-0.06
442.22,-0.195,-0.05
442.22,-0.195,-0.05
442.23,-0.21,-0.06
442.23,-0.215,-0.06
442.23,-0.22,-0.075
442.24,-0.21,-0.055
442.24,-0.21,-0.045
442.24,-0.195,-0.06
442.24,-0.205,-0.055
442.25,-0.22,-0.075
442.25,-0.225,-0.07
442.25,-0.205,-0.07
442.26,-0.205,-0.06
442.26,-0.195,-0.07
442.26,-0.21,-0.075
442.26,-0.22,-0.095
442.27,-0.22,-0.09
442.27,-0.22,-0.075
442.27,-0.205,-0.075
442.27,-0.215,-0.065
442.28,-0.22,-0.065
442.28,-0.235,-0.08
442.28,-0.235,-0.07
442.29,-0.23,-0.05
442.29,-0.23,-0.04
442.29,-0.225,-0.04
442.29,-0.235,-0.045
442.3,-0.24,-0.065
442.3,-0.25,-0.06
442.3,-0.24,-0.065
442.31,-0.24,-0.05
442.31,-0.24,-0.07
442.31,-0.245,-0.075
442.31,-0.245,-0.08
442.32,-0.245,-0.09
442.32,-0.24,-0.08
442.32,-0.23,-0.085
442.33,-0.215,-0.105
442.33,-0.22,-0.12
442.33,-0.225,-0.135
442.33,-0.225,-0.145
442.34,-0.2,-0.14
442.34,-0.185,-0.14
442.34,-0.18,-0.145
442.34,-0.19,-0.16
442.35,-0.21,-0.18
442.35,-0.225,-0.195
442.35,-0.23,-0.18
442.36,-0.225,-0.17
442.36,-0.205,-0.195
442.36,-0.215,-0.22
442.36,-0.23,-0.235
442.37,-0.24,-0.245
442.37,-0.23,-0.225
442.37,-0.215,-0.22
442.38,-0.21,-0.22
442.38,-0.215,-0.215
442.38,-0.235,-0.205
442.38,-0.245,-0.215
442.39,-0.255,-0.2
442.39,-0.255,-0.205
442.39,-0.255,-0.21
442.39,-0.275,-0.205
442.4,-0.285,-0.22
442.4,-0.29,-0.23
442.4,-0.305,-0.22
442.41,-0.285,-0.215
442.41,-0.275,-0.22
442.41,-0.295,-0.215
442.41,-0.3,-0.23
442.42,-0.305,-0.235
442.42,-0.3,-0.22
442.42,-0.295,-0.215
442.42,-0.295,-0.21
442.43,-0.29,-0.225
442.43,-0.31,-0.23
442.43,-0.31,-0.24
442.44,-0.315,-0.22
442.44,-0.315,-0.215
442.44,-0.305,-0.23
442.44,-0.31,-0.22
442.45,-0.32,-0.215
442.45,-0.325,-0.23
442.45,-0.315,-0.225
442.46,-0.315,-0.21
442.46,-0.305,-0.23
442.46,-0.315,-0.215
442.46,-0.315,-0.225
442.47,-0.325,-0.235
442.47,-0.32,-0.205
442.47,-0.3,-0.215
442.47,-0.295,-0.225
442.48,-0.305,-0.23
442.48,-0.295,-0.225
442.48,-0.31,-0.225
442.49,-0.295,-0.21
442.49,-0.305,-0.195
442.49,-0.285,-0.19
442.49,-0.29,-0.19
442.5,-0.295,-0.18
442.5,-0.285,-0.15
442.5,-0.28,-0.075
442.51,-0.265,0.115
442.51,-0.235,0.46
442.51,-0.205,0.825
442.51,-0.175,0.91
442.52,-0.125,0.69
442.52,0.04,0.43
442.52,0.335,0.325
442.52,0.695,0.27
442.53,0.85,0.23
442.53,0.66,0.185
442.53,0.325,0.17
442.54,0.125,0.165
442.54,0.095,0.14
442.54,0.13,0.085
442.54,0.16,-0.005
442.55,0.16,-0.125
442.55,0.17,-0.265
442.55,0.195,-0.44
442.56,0.225,-0.63
442.56,0.25,-0.835
442.56,0.28,-1.05
442.56,0.285,-1.29
442.57,0.3,-1.51
442.57,0.31,-1.71
442.57,0.31,-1.875
442.58,0.315,-2.04
442.58,0.33,-2.17
442.58,0.34,-2.31
442.58,0.36,-2.425
442.59,0.375,-2.5
442.59,0.375,-2.585
442.59,0.365,-2.7
442.59,0.35,-2.83
442.6,0.345,-2.935
442.6,0.315,-3.025
442.6,0.285,-3.07
442.61,0.23,-3.105
442.61,0.17,-3.135
442.61,0.12,-3.19
442.61,0.07,-3.225
442.62,0.005,-3.25
442.62,-0.085,-3.245
442.62,-0.185,-3.26
442.62,-0.265,-3.265
442.63,-0.31,-3.275
442.63,-0.32,-3.275
442.63,-0.305,-3.27
442.64,-0.295,-3.255
442.64,-0.28,-3.22
442.64,-0.29,-3.18
442.64,-0.31,-3.12
442.65,-0.345,-3.05
442.65,-0.39,-2.955
442.65,-0.415,-2.825
442.66,-0.43,-2.685
442.66,-0.455,-2.565
442.66,-0.46,-2.405
442.66,-0.455,-2.24
442.67,-0.47,-2.01
442.67,-0.46,-1.765
442.67,-0.455,-1.545
442.67,-0.46,-1.34
442.68,-0.47,-1.135
442.68,-0.46,-0.925
442.68,-0.47,-0.73
442.69,-0.47,-0.535
442.69,-0.46,-0.35
442.69,-0.475,-0.195
442.69,-0.49,-0.07
442.7,-0.515,0.06
442.7,-0.525,0.185
442.7,-0.53,0.31
442.71,-0.51,0.415
442.71,-0.49,0.52
442.71,-0.48,0.6
442.71,-0.485,0.65
442.72,-0.495,0.695
442.72,-0.495,0.735
442.72,-0.47,0.79
442.72,-0.465,0.82
442.73,-0.45,0.855
442.73,-0.465,0.87
442.73,-0.465,0.905
442.74,-0.465,0.955
442.74,-0.455,0.985
442.74,-0.455,1.01
442.74,-0.46,1.035
442.75,-0.465,1.06
442.75,-0.475,1.09
442.75,-0.47,1.13
442.76,-0.465,1.165
442.76,-0.46,1.2
442.76,-0.465,1.225
442.76,-0.46,1.25
442.77,-0.48,1.295
442.77,-0.49,1.335
442.77,-0.475,1.37
442.77,-0.47,1.39
442.78,-0.465,1.425
442.78,-0.48,1.455
442.78,-0.49,1.485
442.79,-0.485,1.545
442.79,-0.47,1.575
442.79,-0.47,1.615
442.79,-0.475,1.645
442.8,-0.49,1.675
442.8,-0.495,1.705
442.8,-0.485,1.745
442.81,-0.475,1.795
442.81,-0.465,1.815
442.81,-0.455,1.83
442.81,-0.47,1.87
442.82,-0.475,1.89
442.82,-0.46,1.93
442.82,-0.45,1.95
442.83,-0.445,1.97
442.83,-0.435,1.975
442.83,-0.44,1.98
442.83,-0.445,1.985
442.84,-0.435,2.005
442.84,-0.41,2.02
442.84,-0.405,2.015
442.84,-0.405,2.01
442.85,-0.39,1.985
442.85,-0.39,1.98
442.85,-0.39,1.975
442.86,-0.355,1.955
442.86,-0.34,1.925
442.86,-0.345,1.89
442.86,-0.34,1.845
442.87,-0.34,1.815
442.87,-0.32,1.79
442.87,-0.31,1.755
442.88,-0.295,1.7
442.88,-0.29,1.645
442.88,-0.275,1.575
442.88,-0.28,1.52
442.89,-0.26,1.465
442.89,-0.255,1.4
442.89,-0.245,1.345
442.89,-0.25,1.275
442.9,-0.235,1.215
442.9,-0.255,1.14
442.9,-0.235,1.105
442.91,-0.215,1.04
442.91,-0.22,0.98
442.91,-0.225,0.91
442.91,-0.225,0.865
442.92,-0.235,0.79
442.92,-0.215,0.755
442.92,-0.22,0.705
442.92,-0.225,0.655
442.93,-0.225,0.605
442.93,-0.23,0.55
442.93,-0.235,0.495
442.94,-0.23,0.455
442.94,-0.22,0.435
442.94,-0.225,0.39
442.94,-0.225,0.355
442.95,-0.235,0.295
442.95,-0.255,0.265
442.95,-0.245,0.245
442.96,-0.245,0.235
442.96,-0.235,0.2
442.96,-0.24,0.17
442.96,-0.26,0.125
442.97,-0.255,0.12
442.97,-0.265,0.095
442.97,-0.245,0.1
442.97,-0.25,0.075
442.98,-0.26,0.045
442.98,-0.26,0.035
442.98,-0.27,0.025
442.99,-0.265,0.02
442.99,-0.27,0.025
442.99,-0.265,0.01
442.99,-0.27,0
443,-0.28,-0.025
443,-0.28,-0.03
443,-0.28,-0.04
443.01,-0.275,-0.035
443.01,-0.27,-0.055
443.01,-0.27,-0.05
443.01,-0.285,-0.07
443.02,-0.29,-0.07
443.02,-0.285,-0.065
443.02,-0.265,-0.055
443.02,-0.27,-0.07
443.03,-0.27,-0.08
443.03,-0.285,-0.085
443.03,-0.285,-0.09
443.04,-0.285,-0.07
443.04,-0.27,-0.075
443.04,-0.26,-0.08
443.04,-0.265,-0.08
443.05,-0.275,-0.095
443.05,-0.275,-0.105
443.05,-0.27,-0.08
443.06,-0.265,-0.075
443.06,-0.26,-0.08
443.06,-0.255,-0.085
443.06,-0.28,-0.09
443.07,-0.275,-0.09
443.07,-0.27,-0.085
443.07,-0.26,-0.065
443.08,-0.265,-0.075
443.08,-0.265,-0.075
443.08,-0.265,-0.075
443.08,-0.27,-0.075
443.09,-0.275,-0.07
443.09,-0.26,-0.065
443.09,-0.25,-0.055
443.09,-0.245,-0.07
443.1,-0.255,-0.07
443.1,-0.275,-0.075
443.1,-0.285,-0.065
443.11,-0.265,-0.065
443.11,-0.25,-0.075
443.11,-0.26,-0.07
443.11,-0.26,-0.08
443.12,-0.28,-0.085
443.12,-0.27,-0.075
443.12,-0.26,-0.07
443.12,-0.26,-0.08
443.13,-0.265,-0.09
443.13,-0.285,-0.1
443.13,-0.28,-0.085
443.14,-0.275,-0.095
443.14,-0.26,-0.07
443.14,-0.26,-0.09
443.14,-0.275,-0.1
443.15,-0.28,-0.11
443.15,-0.29,-0.11
443.15,-0.285,-0.105
443.16,-0.27,-0.105
443.16,-0.27,-0.125
443.16,-0.275,-0.115
443.16,-0.285,-0.135
443.17,-0.29,-0.135
443.17,-0.285,-0.135
443.17,-0.275,-0.12
443.17,-0.275,-0.13
443.18,-0.28,-0.14
443.18,-0.295,-0.155
443.18,-0.305,-0.16
443.19,-0.29,-0.16
443.19,-0.285,-0.14
443.19,-0.29,-0.155
443.19,-0.285,-0.15
443.2,-0.3,-0.165
443.2,-0.315,-0.17
443.2,-0.3,-0.175
443.21,-0.29,-0.165
443.21,-0.29,-0.17
443.21,-0.295,-0.185
443.21,-0.3,-0.195
443.22,-0.305,-0.2
443.22,-0.3,-0.195
443.22,-0.3,-0.185
443.22,-0.3,-0.195
443.23,-0.295,-0.195
443.23,-0.3,-0.21
443.23,-0.32,-0.225
443.24,-0.305,-0.205
443.24,-0.295,-0.185
443.24,-0.3,-0.21
443.24,-0.305,-0.205
443.25,-0.305,-0.225
443.25,-0.32,-0.215
443.25,-0.305,-0.205
443.26,-0.295,-0.21
443.26,-0.28,-0.215
443.26,-0.295,-0.22
443.26,-0.31,-0.225
443.27,-0.31,-0.24
443.27,-0.295,-0.21
443.27,-0.3,-0.215
443.27,-0.29,-0.225
443.28,-0.3,-0.225
443.28,-0.3,-0.23
443.28,-0.305,-0.22
443.29,-0.295,-0.205
443.29,-0.275,-0.19
443.29,-0.3,-0.19
443.29,-0.305,-0.2
443.3,-0.3,-0.185
443.3,-0.325,-0.18
443.3,-0.305,-0.175
443.31,-0.305,-0.165
443.31,-0.305,-0.165
443.31,-0.31,-0.165
443.31,-0.315,-0.18
443.32,-0.33,-0.19
443.32,-0.315,-0.175
443.32,-0.305,-0.15
443.33,-0.295,-0.165
443.33,-0.285,-0.18
443.33,-0.285,-0.2
443.33,-0.28,-0.2
443.34,-0.255,-0.2
443.34,-0.25,-0.195
443.34,-0.245,-0.2
443.34,-0.24,-0.215
443.35,-0.24,-0.22
443.35,-0.245,-0.24
443.35,-0.225,-0.21
443.36,-0.205,-0.2
443.36,-0.195,-0.13
443.36,-0.2,0.07
443.36,-0.18,0.455
443.37,-0.155,0.79
443.37,-0.085,0.76
443.37,0.025,0.485
443.38,0.28,0.245
443.38,0.675,0.195
443.38,0.905,0.16
443.38,0.755,0.135
443.39,0.44,0.09
443.39,0.22,0.055
443.39,0.15,-0.005
443.39,0.175,-0.095
443.4,0.185,-0.245
443.4,0.19,-0.425
443.4,0.195,-0.64
443.41,0.225,-0.875
443.41,0.235,-1.145
443.41,0.24,-1.4
443.41,0.245,-1.67
443.42,0.25,-1.96
443.42,0.25,-2.17
443.42,0.255,-2.325
443.42,0.285,-2.48
443.43,0.3,-2.605
443.43,0.31,-2.705
443.43,0.315,-2.805
443.44,0.32,-2.915
443.44,0.325,-3
443.44,0.31,-3.085
443.44,0.285,-3.15
443.45,0.24,-3.19
443.45,0.165,-3.205
443.45,0.14,-3.22
443.46,0.125,-3.235
443.46,0.06,-3.275
443.46,-0.025,-3.295
443.46,-0.13,-3.32
443.47,-0.21,-3.335
443.47,-0.215,-3.32
443.47,-0.205,-3.315
443.47,-0.175,-3.315
443.48,-0.17,-3.315
443.48,-0.185,-3.29
443.48,-0.215,-3.255
443.49,-0.25,-3.175
443.49,-0.27,-3.07
443.49,-0.315,-2.97
443.49,-0.345,-2.875
443.5,-0.38,-2.74
443.5,-0.4,-2.585
443.5,-0.395,-2.405
443.51,-0.375,-2.16
443.51,-0.38,-1.935
443.51,-0.39,-1.7
443.51,-0.41,-1.485
443.52,-0.415,-1.26
443.52,-0.42,-1.015
443.52,-0.4,-0.785
443.52,-0.4,-0.57
443.53,-0.425,-0.39
443.53,-0.43,-0.215
443.53,-0.455,-0.05
443.54,-0.465,0.1
443.54,-0.45,0.26
443.54,-0.445,0.38
443.54,-0.45,0.48
443.55,-0.445,0.56
443.55,-0.45,0.62
443.55,-0.44,0.695
443.56,-0.43,0.75
443.56,-0.43,0.785
443.56,-0.42,0.81
443.56,-0.425,0.85
443.57,-0.43,0.895
443.57,-0.425,0.93
443.57,-0.415,0.975
443.58,-0.415,1.02
443.58,-0.415,1.045
443.58,-0.425,1.07
443.58,-0.42,1.11
443.59,-0.415,1.15
443.59,-0.4,1.195
443.59,-0.4,1.225
443.59,-0.4,1.255
443.6,-0.41,1.275
443.6,-0.42,1.32
443.6,-0.415,1.35
443.61,-0.4,1.4
443.61,-0.395,1.44
443.61,-0.395,1.45
443.61,-0.395,1.49
443.62,-0.415,1.525
443.62,-0.4,1.565
443.62,-0.395,1.615
443.62,-0.385,1.655
443.63,-0.39,1.68
443.63,-0.4,1.705
443.63,-0.4,1.735
443.64,-0.39,1.79
443.64,-0.385,1.83
443.64,-0.38,1.85
443.64,-0.37,1.865
443.65,-0.37,1.89
443.65,-0.375,1.915
443.65,-0.36,1.945
443.66,-0.35,1.97
443.66,-0.34,1.98
443.66,-0.34,1.99
443.66,-0.345,1.99
443.67,-0.335,2
443.67,-0.31,2.005
443.67,-0.3,2.005
443.67,-0.295,2
443.68,-0.29,1.97
443.68,-0.28,1.955
443.68,-0.28,1.915
443.69,-0.265,1.905
443.69,-0.235,1.885
443.69,-0.25,1.835
443.69,-0.245,1.78
443.7,-0.25,1.72
443.7,-0.24,1.67
443.7,-0.23,1.635
443.71,-0.205,1.57
443.71,-0.195,1.51
443.71,-0.2,1.44
443.71,-0.22,1.37
443.72,-0.21,1.31
443.72,-0.195,1.26
443.72,-0.19,1.21
443.72,-0.175,1.14
443.73,-0.185,1.07
443.73,-0.2,1
443.73,-0.18,0.925
443.74,-0.16,0.875
443.74,-0.17,0.825
443.74,-0.17,0.76
443.74,-0.175,0.695
443.75,-0.19,0.63
443.75,-0.195,0.57
443.75,-0.185,0.54
443.76,-0.175,0.495
443.76,-0.175,0.445
443.76,-0.195,0.39
443.76,-0.205,0.34
443.77,-0.21,0.295
443.77,-0.21,0.285
443.77,-0.225,0.26
443.77,-0.22,0.215
443.78,-0.21,0.18
443.78,-0.225,0.15
443.78,-0.23,0.125
443.79,-0.24,0.1
443.79,-0.225,0.115
443.79,-0.23,0.07
443.79,-0.235,0.04
443.8,-0.24,0.03
443.8,-0.25,0.015
443.8,-0.235,0.015
443.81,-0.23,-0.005
443.81,-0.25,-0.015
443.81,-0.255,-0.035
443.81,-0.27,-0.05
443.82,-0.275,-0.065
443.82,-0.25,-0.055
443.82,-0.24,-0.05
443.83,-0.24,-0.065
443.83,-0.25,-0.08
443.83,-0.255,-0.095
443.83,-0.265,-0.095
443.84,-0.25,-0.08
443.84,-0.235,-0.07
443.84,-0.225,-0.08
443.84,-0.25,-0.085
443.85,-0.25,-0.105
443.85,-0.255,-0.115
443.85,-0.255,-0.095
443.86,-0.24,-0.085
443.86,-0.25,-0.1
443.86,-0.26,-0.105
443.86,-0.26,-0.12
443.87,-0.26,-0.12
443.87,-0.255,-0.1
443.87,-0.245,-0.085
443.88,-0.235,-0.105
443.88,-0.24,-0.105
443.88,-0.25,-0.125
443.88,-0.255,-0.105
443.89,-0.25,-0.085
443.89,-0.24,-0.085
443.89,-0.245,-0.08
443.89,-0.255,-0.1
443.9,-0.275,-0.09
443.9,-0.25,-0.11
443.9,-0.245,-0.095
443.91,-0.235,-0.07
443.91,-0.215,-0.08
443.91,-0.21,-0.095
443.91,-0.225,-0.09
443.92,-0.245,-0.1
443.92,-0.265,-0.085
443.92,-0.255,-0.085
443.92,-0.27,-0.09
443.93,-0.27,-0.095
443.93,-0.265,-0.105
443.93,-0.27,-0.1
443.94,-0.27,-0.09
443.94,-0.26,-0.075
443.94,-0.27,-0.085
443.94,-0.28,-0.105
443.95,-0.27,-0.11
443.95,-0.275,-0.115
443.95,-0.27,-0.1
443.96,-0.275,-0.095
443.96,-0.27,-0.105
443.96,-0.275,-0.125
443.96,-0.27,-0.135
443.97,-0.28,-0.14
443.97,-0.275,-0.14
443.97,-0.285,-0.13
443.97,-0.275,-0.145
443.98,-0.28,-0.15
443.98,-0.29,-0.15
443.98,-0.31,-0.155
443.99,-0.3,-0.145
443.99,-0.28,-0.135
443.99,-0.27,-0.155
443.99,-0.265,-0.17
444,-0.27,-0.175
444,-0.28,-0.175
444,-0.28,-0.17
444.01,-0.28,-0.175
444.01,-0.28,-0.18
444.01,-0.31,-0.2
444.01,-0.305,-0.205
444.02,-0.31,-0.2
444.02,-0.3,-0.185
444.02,-0.29,-0.18
444.02,-0.29,-0.18
444.03,-0.31,-0.195
444.03,-0.31,-0.215
444.03,-0.29,-0.21
444.04,-0.285,-0.195
444.04,-0.275,-0.195
444.04,-0.275,-0.2
444.04,-0.29,-0.22
444.05,-0.305,-0.225
444.05,-0.315,-0.23
444.05,-0.3,-0.22
444.06,-0.285,-0.21
444.06,-0.275,-0.21
444.06,-0.3,-0.235
444.06,-0.32,-0.24
444.07,-0.315,-0.24
444.07,-0.295,-0.225
444.07,-0.285,-0.215
444.08,-0.27,-0.235
444.08,-0.285,-0.23
444.08,-0.305,-0.235
444.08,-0.3,-0.245
444.09,-0.305,-0.23
444.09,-0.3,-0.235
444.09,-0.295,-0.23
444.09,-0.305,-0.235
444.1,-0.305,-0.245
444.1,-0.31,-0.23
444.1,-0.285,-0.22
444.11,-0.27,-0.21
444.11,-0.285,-0.225
444.11,-0.275,-0.24
444.11,-0.295,-0.23
444.12,-0.31,-0.235
444.12,-0.32,-0.22
444.12,-0.32,-0.2
444.12,-0.305,-0.205
444.13,-0.3,-0.195
444.13,-0.29,-0.19
444.13,-0.29,-0.19
444.14,-0.285,-0.165
444.14,-0.28,-0.16
444.14,-0.28,-0.16
444.14,-0.28,-0.165
444.15,-0.275,-0.195
444.15,-0.285,-0.19
444.15,-0.245,-0.18
444.16,-0.215,-0.145
444.16,-0.19,-0.065
444.16,-0.175,0.17
444.16,-0.165,0.605
444.17,-0.125,0.895
444.17,-0.045,0.75
444.17,0.145,0.415
444.17,0.505,0.22
444.18,0.89,0.145
444.18,0.905,0.11
444.18,0.565,0.045
444.19,0.255,-0.005
444.19,0.18,-0.065
444.19,0.195,-0.17
444.19,0.235,-0.31
444.2,0.24,-0.51
444.2,0.215,-0.755
444.2,0.215,-1.025
444.21,0.22,-1.29
444.21,0.23,-1.59
444.21,0.23,-1.89
444.21,0.205,-2.15
444.22,0.19,-2.355
444.22,0.19,-2.53
444.22,0.215,-2.655
444.22,0.265,-2.77
444.23,0.285,-2.88
444.23,0.29,-3
444.23,0.265,-3.11
444.24,0.265,-3.185
444.24,0.22,-3.225
444.24,0.17,-3.26
444.24,0.11,-3.28
444.25,0.06,-3.315
444.25,0,-3.325
444.25,-0.08,-3.32
444.26,-0.17,-3.315
444.26,-0.275,-3.335
444.26,-0.345,-3.325
444.26,-0.36,-3.35
444.27,-0.32,-3.325
444.27,-0.28,-3.295
444.27,-0.26,-3.26
444.27,-0.275,-3.225
444.28,-0.305,-3.145
444.28,-0.35,-3.055
444.28,-0.41,-2.905
444.29,-0.445,-2.76
444.29,-0.465,-2.59
444.29,-0.46,-2.415
444.29,-0.44,-2.225
444.3,-0.425,-1.98
444.3,-0.43,-1.73
444.3,-0.415,-1.48
444.31,-0.41,-1.23
444.31,-0.4,-1.005
444.31,-0.405,-0.79
444.31,-0.41,-0.59
444.32,-0.415,-0.385
444.32,-0.41,-0.185
444.32,-0.41,-0.005
444.33,-0.42,0.13
444.33,-0.43,0.27
444.33,-0.42,0.385
444.33,-0.415,0.485
444.34,-0.395,0.575
444.34,-0.395,0.645
444.34,-0.395,0.7
444.34,-0.4,0.73
444.35,-0.4,0.75
444.35,-0.39,0.8
444.35,-0.36,0.84
444.36,-0.345,0.885
444.36,-0.325,0.92
444.36,-0.345,0.94
444.36,-0.35,0.97
444.37,-0.36,1
444.37,-0.36,1.04
444.37,-0.335,1.08
444.38,-0.335,1.11
444.38,-0.31,1.14
444.38,-0.305,1.155
444.38,-0.31,1.195
444.39,-0.305,1.235
444.39,-0.3,1.275
444.39,-0.325,1.31
444.39,-0.33,1.335
444.4,-0.345,1.365
444.4,-0.35,1.4
444.4,-0.335,1.425
444.41,-0.305,1.47
444.41,-0.285,1.495
444.41,-0.28,1.54
444.41,-0.295,1.555
444.42,-0.31,1.58
444.42,-0.3,1.635
444.42,-0.27,1.66
444.42,-0.26,1.69
444.43,-0.27,1.715
444.43,-0.27,1.73
444.43,-0.285,1.77
444.44,-0.275,1.8
444.44,-0.255,1.825
444.44,-0.235,1.845
444.44,-0.235,1.85
444.45,-0.245,1.865
444.45,-0.235,1.88
444.45,-0.22,1.89
444.46,-0.195,1.905
444.46,-0.175,1.9
444.46,-0.18,1.895
444.46,-0.185,1.87
444.47,-0.185,1.855
444.47,-0.17,1.85
444.47,-0.17,1.835
444.47,-0.155,1.8
444.48,-0.15,1.76
444.48,-0.145,1.715
444.48,-0.14,1.675
444.49,-0.14,1.635
444.49,-0.1,1.585
444.49,-0.095,1.525
444.49,-0.095,1.455
444.5,-0.1,1.39
444.5,-0.095,1.32
444.5,-0.085,1.27
444.51,-0.08,1.21
444.51,-0.08,1.135
444.51,-0.075,1.07
444.51,-0.085,1.005
444.52,-0.1,0.94
444.52,-0.09,0.89
444.52,-0.085,0.835
444.52,-0.08,0.76
444.53,-0.09,0.695
444.53,-0.095,0.645
444.53,-0.105,0.585
444.54,-0.105,0.54
444.54,-0.09,0.495
444.54,-0.11,0.435
444.54,-0.1,0.4
444.55,-0.115,0.345
444.55,-0.135,0.31
444.55,-0.135,0.285
444.56,-0.13,0.25
444.56,-0.14,0.22
444.56,-0.145,0.175
444.56,-0.155,0.135
444.57,-0.165,0.11
444.57,-0.16,0.105
444.57,-0.16,0.08
444.58,-0.155,0.055
444.58,-0.165,0.035
444.58,-0.175,0.005
444.58,-0.19,0
444.59,-0.185,-0.005
444.59,-0.18,-0.01
444.59,-0.175,-0.025
444.59,-0.175,-0.035
444.6,-0.19,-0.055
444.6,-0.205,-0.065
444.6,-0.195,-0.06
444.61,-0.185,-0.065
444.61,-0.18,-0.075
444.61,-0.18,-0.08
444.61,-0.19,-0.1
444.62,-0.195,-0.105
444.62,-0.185,-0.1
444.62,-0.185,-0.09
444.62,-0.185,-0.105
444.63,-0.19,-0.115
444.63,-0.2,-0.12
444.63,-0.22,-0.115
444.64,-0.2,-0.11
444.64,-0.2,-0.095
444.64,-0.2,-0.1
444.64,-0.205,-0.11
444.65,-0.21,-0.11
444.65,-0.215,-0.1
444.65,-0.215,-0.095
444.66,-0.185,-0.085
444.66,-0.19,-0.09
444.66,-0.21,-0.1
444.66,-0.22,-0.11
444.67,-0.215,-0.105
444.67,-0.21,-0.085
444.67,-0.205,-0.08
444.67,-0.205,-0.085
444.68,-0.225,-0.095
444.68,-0.23,-0.115
444.68,-0.225,-0.1
444.69,-0.215,-0.09
444.69,-0.235,-0.085
444.69,-0.225,-0.08
444.69,-0.24,-0.095
444.7,-0.245,-0.1
444.7,-0.25,-0.105
444.7,-0.26,-0.095
444.71,-0.24,-0.085
444.71,-0.25,-0.08
444.71,-0.26,-0.105
444.71,-0.255,-0.125
444.72,-0.265,-0.125
444.72,-0.25,-0.11
444.72,-0.245,-0.1
444.72,-0.25,-0.125
444.73,-0.255,-0.125
444.73,-0.255,-0.13
444.73,-0.28,-0.145
444.74,-0.265,-0.135
444.74,-0.265,-0.135
444.74,-0.27,-0.125
444.74,-0.265,-0.155
444.75,-0.28,-0.155
444.75,-0.285,-0.15
444.75,-0.28,-0.15
444.76,-0.29,-0.15
444.76,-0.29,-0.16
444.76,-0.285,-0.165
444.76,-0.305,-0.18
444.77,-0.305,-0.185
444.77,-0.3,-0.18
444.77,-0.3,-0.18
444.77,-0.28,-0.185
444.78,-0.29,-0.185
444.78,-0.31,-0.2
444.78,-0.31,-0.21
444.79,-0.31,-0.195
444.79,-0.29,-0.19
444.79,-0.29,-0.21
444.79,-0.305,-0.2
444.8,-0.31,-0.22
444.8,-0.325,-0.22
444.8,-0.31,-0.21
444.81,-0.305,-0.2
444.81,-0.305,-0.2
444.81,-0.315,-0.225
444.81,-0.33,-0.23
444.82,-0.33,-0.225
444.82,-0.32,-0.225
444.82,-0.315,-0.215
444.83,-0.315,-0.235
444.83,-0.315,-0.23
444.83,-0.32,-0.245
444.83,-0.335,-0.245
444.84,-0.325,-0.235
444.84,-0.315,-0.22
444.84,-0.32,-0.225
444.84,-0.32,-0.24
444.85,-0.33,-0.26
444.85,-0.335,-0.245
444.85,-0.325,-0.235
444.86,-0.305,-0.235
444.86,-0.32,-0.24
444.86,-0.315,-0.255
444.86,-0.33,-0.265
444.87,-0.335,-0.26
444.87,-0.33,-0.245
444.87,-0.32,-0.24
444.88,-0.315,-0.24
444.88,-0.32,-0.24
444.88,-0.325,-0.265
444.88,-0.34,-0.26
444.89,-0.32,-0.24
444.89,-0.325,-0.24
444.89,-0.315,-0.245
444.89,-0.32,-0.26
444.9,-0.335,-0.26
444.9,-0.325,-0.26
444.9,-0.315,-0.25
444.91,-0.305,-0.24
444.91,-0.31,-0.25
444.91,-0.32,-0.265
444.91,-0.325,-0.27
444.92,-0.33,-0.265
444.92,-0.325,-0.24
444.92,-0.32,-0.245
444.92,-0.315,-0.245
444.93,-0.31,-0.255
444.93,-0.315,-0.25
444.93,-0.315,-0.235
444.94,-0.3,-0.22
444.94,-0.29,-0.16
444.94,-0.27,-0.055
444.94,-0.265,0.23
444.95,-0.24,0.635
444.95,-0.205,0.91
444.95,-0.125,0.8
444.96,0.015,0.515
444.96,0.345,0.31
444.96,0.75,0.23
444.96,0.935,0.195
444.97,0.72,0.16
444.97,0.39,0.14
444.97,0.175,0.115
444.97,0.145,0.06
444.98,0.16,-0.025
444.98,0.16,-0.165
444.98,0.16,-0.335
444.99,0.175,-0.53
444.99,0.2,-0.77
444.99,0.22,-1.03
444.99,0.235,-1.3
445,0.23,-1.565
445,0.215,-1.84
445,0.22,-2.075
445.01,0.205,-2.255
445.01,0.22,-2.435
445.01,0.21,-2.6
445.01,0.21,-2.735
445.02,0.19,-2.825
445.02,0.18,-2.92
445.02,0.165,-3.015
445.02,0.16,-3.13
445.03,0.12,-3.22
445.03,0.055,-3.26
445.03,-0.03,-3.285
445.04,-0.09,-3.29
445.04,-0.115,-3.295
445.04,-0.16,-3.315
445.04,-0.23,-3.33
445.05,-0.345,-3.355
445.05,-0.44,-3.355
445.05,-0.485,-3.33
445.06,-0.5,-3.33
445.06,-0.47,-3.335
445.06,-0.445,-3.325
445.06,-0.43,-3.325
445.07,-0.44,-3.305
445.07,-0.46,-3.255
445.07,-0.47,-3.195
445.08,-0.475,-3.105
445.08,-0.5,-3
445.08,-0.5,-2.875
445.08,-0.495,-2.73
445.09,-0.465,-2.545
445.09,-0.43,-2.325
445.09,-0.42,-2.08
445.09,-0.405,-1.835
445.1,-0.4,-1.595
445.1,-0.405,-1.35
445.1,-0.405,-1.11
445.11,-0.395,-0.885
445.11,-0.375,-0.66
445.11,-0.385,-0.47
445.11,-0.415,-0.305
445.12,-0.43,-0.145
445.12,-0.44,0.025
445.12,-0.425,0.17
445.12,-0.43,0.315
445.13,-0.405,0.41
445.13,-0.41,0.485
445.13,-0.41,0.56
445.14,-0.41,0.63
445.14,-0.415,0.69
445.14,-0.395,0.71
445.14,-0.405,0.735
445.15,-0.43,0.755
445.15,-0.445,0.8
445.15,-0.445,0.835
445.16,-0.455,0.86
445.16,-0.445,0.875
445.16,-0.455,0.905
445.16,-0.46,0.915
445.17,-0.465,0.94
445.17,-0.455,0.965
445.17,-0.455,1
445.17,-0.455,1.015
445.18,-0.465,1.03
445.18,-0.485,1.04
445.18,-0.48,1.065
445.19,-0.49,1.09
445.19,-0.485,1.125
445.19,-0.47,1.155
445.19,-0.505,1.165
445.2,-0.5,1.185
445.2,-0.505,1.215
445.2,-0.505,1.245
445.21,-0.51,1.27
445.21,-0.51,1.295
445.21,-0.505,1.32
445.21,-0.52,1.335
445.22,-0.525,1.365
445.22,-0.53,1.42
445.22,-0.515,1.445
445.22,-0.515,1.485
445.23,-0.52,1.51
445.23,-0.515,1.515
445.23,-0.53,1.555
445.24,-0.515,1.6
445.24,-0.51,1.63
445.24,-0.5,1.645
445.24,-0.495,1.67
445.25,-0.495,1.685
445.25,-0.5,1.715
445.25,-0.485,1.745
445.26,-0.48,1.765
445.26,-0.46,1.77
445.26,-0.455,1.775
445.26,-0.45,1.79
445.27,-0.445,1.795
445.27,-0.42,1.805
445.27,-0.395,1.795
445.27,-0.385,1.79
445.28,-0.375,1.77
445.28,-0.375,1.745
445.28,-0.36,1.725
445.29,-0.34,1.705
445.29,-0.32,1.68
445.29,-0.3,1.635
445.29,-0.305,1.585
445.3,-0.29,1.525
445.3,-0.28,1.46
445.3,-0.265,1.415
445.31,-0.245,1.355
445.31,-0.225,1.28
445.31,-0.215,1.205
445.31,-0.21,1.14
445.32,-0.215,1.075
445.32,-0.195,1.005
445.32,-0.19,0.94
445.33,-0.175,0.87
445.33,-0.18,0.81
445.33,-0.19,0.72
445.33,-0.18,0.655
445.34,-0.175,0.605
445.34,-0.165,0.565
445.34,-0.16,0.505
445.34,-0.17,0.44
445.35,-0.175,0.375
445.35,-0.185,0.335
445.35,-0.19,0.305
445.36,-0.18,0.265
445.36,-0.18,0.225
445.36,-0.2,0.18
445.36,-0.205,0.155
445.37,-0.215,0.125
445.37,-0.205,0.11
445.37,-0.21,0.095
445.38,-0.21,0.085
445.38,-0.225,0.045
445.38,-0.24,0.03
445.38,-0.26,0.02
445.39,-0.25,0.015
445.39,-0.24,0.015
445.39,-0.235,0.015
445.39,-0.25,-0.01
445.4,-0.26,-0.02
445.4,-0.28,-0.035
445.4,-0.265,-0.02
445.41,-0.255,-0.005
445.41,-0.25,-0.025
445.41,-0.26,-0.04
445.41,-0.27,-0.035
445.42,-0.275,-0.03
445.42,-0.28,-0.03
445.42,-0.26,-0.025
445.42,-0.26,-0.02
445.43,-0.265,-0.03
445.43,-0.275,-0.035
445.43,-0.285,-0.035
445.44,-0.265,-0.02
445.44,-0.275,-0.02
445.44,-0.275,-0.02
445.44,-0.27,-0.03
445.45,-0.285,-0.035
445.45,-0.28,-0.025
445.45,-0.27,-0.025
445.46,-0.265,-0.01
445.46,-0.265,-0.01
445.46,-0.27,-0.025
445.46,-0.28,-0.045
445.47,-0.29,-0.04
445.47,-0.275,-0.03
445.47,-0.265,-0.025
445.47,-0.275,-0.025
445.48,-0.26,-0.04
445.48,-0.285,-0.055
445.48,-0.29,-0.06
445.49,-0.285,-0.055
445.49,-0.26,-0.05
445.49,-0.265,-0.055
445.49,-0.27,-0.065
445.5,-0.295,-0.085
445.5,-0.295,-0.085
445.5,-0.285,-0.08
445.51,-0.275,-0.08
445.51,-0.285,-0.08
445.51,-0.295,-0.095
445.51,-0.3,-0.105
445.52,-0.305,-0.115
445.52,-0.295,-0.11
445.52,-0.3,-0.105
445.52,-0.295,-0.105
445.53,-0.3,-0.12
445.53,-0.31,-0.13
445.53,-0.31,-0.14
445.54,-0.32,-0.13
445.54,-0.32,-0.135
445.54,-0.295,-0.14
445.54,-0.3,-0.155
445.55,-0.315,-0.17
445.55,-0.325,-0.15
445.55,-0.31,-0.16
445.56,-0.31,-0.16
445.56,-0.31,-0.155
445.56,-0.32,-0.18
445.56,-0.32,-0.19
445.57,-0.325,-0.19
445.57,-0.32,-0.19
445.57,-0.31,-0.18
445.58,-0.31,-0.18
445.58,-0.315,-0.195
445.58,-0.32,-0.205
445.58,-0.325,-0.205
445.59,-0.335,-0.2
445.59,-0.32,-0.195
445.59,-0.32,-0.205
445.59,-0.32,-0.205
445.6,-0.33,-0.225
445.6,-0.34,-0.22
445.6,-0.33,-0.215
445.61,-0.325,-0.21
445.61,-0.325,-0.21
445.61,-0.33,-0.215
445.61,-0.33,-0.235
445.62,-0.34,-0.235
445.62,-0.335,-0.21
445.62,-0.325,-0.22
445.62,-0.32,-0.205
445.63,-0.325,-0.225
445.63,-0.33,-0.23
445.63,-0.345,-0.23
445.64,-0.33,-0.24
445.64,-0.32,-0.225
445.64,-0.32,-0.235
445.64,-0.32,-0.24
445.65,-0.335,-0.245
445.65,-0.35,-0.255
445.65,-0.345,-0.235
445.66,-0.32,-0.23
445.66,-0.315,-0.235
445.66,-0.325,-0.24
445.66,-0.335,-0.235
445.67,-0.345,-0.245
445.67,-0.33,-0.24
445.67,-0.325,-0.235
445.67,-0.32,-0.22
445.68,-0.325,-0.245
445.68,-0.33,-0.245
445.68,-0.33,-0.245
445.69,-0.335,-0.23
445.69,-0.325,-0.23
445.69,-0.335,-0.23
445.69,-0.325,-0.24
445.7,-0.335,-0.27
445.7,-0.345,-0.245
445.7,-0.33,-0.25
445.71,-0.315,-0.235
445.71,-0.325,-0.23
445.71,-0.325,-0.24
445.71,-0.33,-0.25
445.72,-0.34,-0.24
445.72,-0.32,-0.24
445.72,-0.31,-0.235
445.72,-0.31,-0.225
445.73,-0.3,-0.225
445.73,-0.315,-0.23
445.73,-0.305,-0.215
445.74,-0.3,-0.205
445.74,-0.28,-0.17
445.74,-0.275,-0.14
445.74,-0.265,-0.02
445.75,-0.255,0.295
445.75,-0.235,0.71
445.75,-0.175,0.85
445.76,-0.1,0.64
445.76,0.085,0.38
445.76,0.45,0.235
445.76,0.805,0.185
445.77,0.815,0.13
445.77,0.55,0.09
445.77,0.25,0.04
445.77,0.11,-0.045
445.78,0.115,-0.165
445.78,0.12,-0.315
445.78,0.12,-0.48
445.79,0.13,-0.65
445.79,0.14,-0.85
445.79,0.145,-1.1
445.79,0.13,-1.345
445.8,0.14,-1.555
445.8,0.145,-1.75
445.8,0.155,-1.91
445.81,0.145,-2.045
445.81,0.13,-2.225
445.81,0.135,-2.42
445.81,0.13,-2.61
445.82,0.125,-2.75
445.82,0.12,-2.855
445.82,0.105,-2.95
445.83,0.08,-3.03
445.83,0.05,-3.12
445.83,-0.02,-3.21
445.83,-0.075,-3.245
445.84,-0.13,-3.25
445.84,-0.18,-3.26
445.84,-0.23,-3.285
445.84,-0.29,-3.315
445.85,-0.38,-3.32
445.85,-0.47,-3.31
445.85,-0.51,-3.3
445.86,-0.51,-3.29
445.86,-0.49,-3.295
445.86,-0.47,-3.295
445.86,-0.435,-3.285
445.87,-0.415,-3.26
445.87,-0.415,-3.22
445.87,-0.405,-3.145
445.88,-0.41,-3.055
445.88,-0.415,-2.955
445.88,-0.44,-2.835
445.88,-0.435,-2.665
445.89,-0.42,-2.48
445.89,-0.405,-2.265
445.89,-0.38,-2.055
445.89,-0.36,-1.835
445.9,-0.36,-1.6
445.9,-0.34,-1.34
445.9,-0.35,-1.095
445.91,-0.375,-0.87
445.91,-0.39,-0.66
445.91,-0.405,-0.46
445.91,-0.405,-0.275
445.92,-0.41,-0.095
445.92,-0.41,0.075
445.92,-0.4,0.24
445.92,-0.4,0.4
445.93,-0.395,0.505
445.93,-0.385,0.565
445.93,-0.39,0.645
445.94,-0.375,0.7
445.94,-0.37,0.755
445.94,-0.38,0.79
445.94,-0.38,0.82
445.95,-0.38,0.855
445.95,-0.385,0.89
445.95,-0.38,0.93
445.96,-0.36,0.965
445.96,-0.365,0.99
445.96,-0.37,1.01
445.96,-0.37,1.025
445.97,-0.375,1.06
445.97,-0.355,1.09
445.97,-0.345,1.1
445.97,-0.335,1.115
445.98,-0.345,1.125
445.98,-0.36,1.125
445.98,-0.355,1.155
445.99,-0.355,1.175
445.99,-0.34,1.195
445.99,-0.33,1.21
445.99,-0.325,1.215
446,-0.345,1.215
446,-0.35,1.245
446,-0.34,1.28
446.01,-0.33,1.305
446.01,-0.335,1.325
446.01,-0.345,1.355
446.01,-0.35,1.36
446.02,-0.36,1.38
446.02,-0.355,1.435
446.02,-0.355,1.47
446.02,-0.355,1.51
446.03,-0.355,1.535
446.03,-0.365,1.55
446.03,-0.37,1.575
446.04,-0.37,1.605
446.04,-0.375,1.63
446.04,-0.385,1.655
446.04,-0.39,1.675
446.05,-0.395,1.69
446.05,-0.385,1.71
446.05,-0.375,1.75
446.06,-0.375,1.765
446.06,-0.355,1.78
446.06,-0.36,1.78
446.06,-0.365,1.775
446.07,-0.365,1.795
446.07,-0.365,1.795
446.07,-0.355,1.805
446.08,-0.35,1.8
446.08,-0.335,1.79
446.08,-0.345,1.765
446.08,-0.34,1.76
446.09,-0.31,1.745
446.09,-0.295,1.715
446.09,-0.29,1.685
446.09,-0.29,1.645
446.1,-0.295,1.595
446.1,-0.28,1.555
446.1,-0.25,1.505
446.11,-0.245,1.475
446.11,-0.24,1.405
446.11,-0.24,1.33
446.11,-0.24,1.26
446.12,-0.235,1.2
446.12,-0.225,1.14
446.12,-0.205,1.085
446.12,-0.19,1.03
446.13,-0.2,0.94
446.13,-0.2,0.87
446.13,-0.195,0.82
446.14,-0.195,0.755
446.14,-0.17,0.71
446.14,-0.185,0.65
446.14,-0.175,0.57
446.15,-0.175,0.52
446.15,-0.185,0.47
446.15,-0.17,0.43
446.16,-0.16,0.395
446.16,-0.175,0.34
446.16,-0.18,0.28
446.16,-0.2,0.24
446.17,-0.2,0.215
446.17,-0.21,0.19
446.17,-0.21,0.165
446.17,-0.225,0.14
446.18,-0.22,0.115
446.18,-0.225,0.075
446.18,-0.245,0.075
446.19,-0.235,0.065
446.19,-0.23,0.065
446.19,-0.245,0.04
446.19,-0.245,0.025
446.2,-0.245,0.005
446.2,-0.255,0
446.2,-0.24,0.01
446.21,-0.25,0.015
446.21,-0.245,0
446.21,-0.265,-0.01
446.21,-0.26,-0.025
446.22,-0.265,-0.015
446.22,-0.255,-0.015
446.22,-0.245,-0.015
446.22,-0.24,-0.02
446.23,-0.245,-0.03
446.23,-0.255,-0.035
446.23,-0.265,-0.03
446.24,-0.25,-0.02
446.24,-0.245,-0.005
446.24,-0.26,-0.015
446.24,-0.255,-0.025
446.25,-0.27,-0.035
446.25,-0.27,-0.03
446.25,-0.255,-0.025
446.26,-0.26,-0.015
446.26,-0.255,-0.02
446.26,-0.275,-0.03
446.26,-0.28,-0.04
446.27,-0.28,-0.035
446.27,-0.275,-0.02
446.27,-0.28,-0.025
446.27,-0.29,-0.035
446.28,-0.275,-0.045
446.28,-0.28,-0.045
446.28,-0.285,-0.04
446.29,-0.27,-0.03
446.29,-0.255,-0.03
446.29,-0.255,-0.03
446.29,-0.28,-0.045
446.3,-0.28,-0.06
446.3,-0.285,-0.055
446.3,-0.28,-0.05
446.31,-0.275,-0.045
446.31,-0.27,-0.065
446.31,-0.275,-0.075
446.31,-0.295,-0.085
446.32,-0.3,-0.075
446.32,-0.29,-0.07
446.32,-0.275,-0.07
446.33,-0.275,-0.07
446.33,-0.255,-0.085
446.33,-0.275,-0.09
446.33,-0.285,-0.1
446.34,-0.265,-0.1
446.34,-0.27,-0.095
446.34,-0.255,-0.105
446.34,-0.265,-0.115
446.35,-0.285,-0.12
446.35,-0.3,-0.125
446.35,-0.29,-0.135
446.36,-0.295,-0.125
446.36,-0.28,-0.12
446.36,-0.285,-0.14
446.36,-0.29,-0.15
446.37,-0.3,-0.155
446.37,-0.295,-0.15
446.37,-0.28,-0.155
446.38,-0.285,-0.15
446.38,-0.285,-0.16
446.38,-0.305,-0.18
446.38,-0.285,-0.18
446.39,-0.28,-0.17
446.39,-0.285,-0.155
446.39,-0.275,-0.155
446.39,-0.28,-0.175
446.4,-0.29,-0.19
446.4,-0.29,-0.195
446.4,-0.275,-0.18
446.41,-0.285,-0.175
446.41,-0.275,-0.18
446.41,-0.29,-0.19
446.41,-0.285,-0.2
446.42,-0.295,-0.2
446.42,-0.3,-0.185
446.42,-0.28,-0.185
446.42,-0.28,-0.195
446.43,-0.29,-0.205
446.43,-0.29,-0.215
446.43,-0.295,-0.21
446.44,-0.29,-0.205
446.44,-0.265,-0.195
446.44,-0.275,-0.195
446.44,-0.28,-0.215
446.45,-0.305,-0.22
446.45,-0.31,-0.205
446.45,-0.3,-0.205
446.46,-0.3,-0.2
446.46,-0.29,-0.205
446.46,-0.28,-0.205
446.46,-0.29,-0.215
446.47,-0.29,-0.22
446.47,-0.27,-0.215
446.47,-0.27,-0.195
446.47,-0.285,-0.2
446.48,-0.27,-0.225
446.48,-0.28,-0.225
446.48,-0.29,-0.21
446.49,-0.285,-0.2
446.49,-0.285,-0.195
446.49,-0.29,-0.21
446.49,-0.3,-0.215
446.5,-0.31,-0.225
446.5,-0.305,-0.235
446.5,-0.285,-0.21
446.51,-0.285,-0.21
446.51,-0.28,-0.225
446.51,-0.285,-0.235
446.51,-0.305,-0.24
446.52,-0.31,-0.23
446.52,-0.3,-0.22
446.52,-0.275,-0.21
446.52,-0.27,-0.22
446.53,-0.28,-0.23
446.53,-0.3,-0.235
446.53,-0.3,-0.235
446.54,-0.285,-0.215
446.54,-0.27,-0.215
446.54,-0.26,-0.215
446.54,-0.265,-0.22
446.55,-0.265,-0.23
446.55,-0.28,-0.23
446.55,-0.26,-0.22
446.56,-0.26,-0.215
446.56,-0.26,-0.22
446.56,-0.255,-0.235
446.56,-0.25,-0.23
446.57,-0.26,-0.225
446.57,-0.245,-0.225
446.57,-0.26,-0.21
446.58,-0.255,-0.2
446.58,-0.26,-0.19
446.58,-0.27,-0.18
446.58,-0.26,-0.105
446.59,-0.235,0.12
446.59,-0.21,0.455
446.59,-0.175,0.73
446.59,-0.135,0.69
446.6,-0.05,0.46
446.6,0.185,0.275
446.6,0.56,0.215
446.61,0.81,0.18
446.61,0.735,0.125
446.61,0.445,0.04
446.61,0.215,-0.035
446.62,0.13,-0.12
446.62,0.145,-0.235
446.62,0.17,-0.375
446.62,0.17,-0.545
446.63,0.165,-0.72
446.63,0.16,-0.93
446.63,0.15,-1.15
446.64,0.155,-1.33
446.64,0.175,-1.49
446.64,0.155,-1.64
446.64,0.14,-1.79
446.65,0.105,-1.945
446.65,0.1,-2.115
446.65,0.12,-2.335
446.66,0.105,-2.52
446.66,0.105,-2.695
446.66,0.07,-2.81
446.66,0.06,-2.905
446.67,0.035,-2.98
446.67,0.015,-3.06
446.67,0.005,-3.13
446.67,-0.045,-3.175
446.68,-0.12,-3.21
446.68,-0.2,-3.235
446.68,-0.285,-3.255
446.69,-0.34,-3.26
446.69,-0.415,-3.245
446.69,-0.51,-3.26
446.69,-0.58,-3.275
446.7,-0.625,-3.28
446.7,-0.62,-3.27
446.7,-0.585,-3.25
446.71,-0.53,-3.23
446.71,-0.515,-3.21
446.71,-0.505,-3.195
446.71,-0.505,-3.145
446.72,-0.495,-3.05
446.72,-0.475,-2.93
446.72,-0.49,-2.81
446.72,-0.5,-2.655
446.73,-0.505,-2.495
446.73,-0.505,-2.275
446.73,-0.485,-2.07
446.74,-0.455,-1.83
446.74,-0.38,-1.605
446.74,-0.33,-1.36
446.74,-0.305,-1.135
446.75,-0.32,-0.935
446.75,-0.315,-0.73
446.75,-0.305,-0.535
446.76,-0.29,-0.345
446.76,-0.3,-0.175
446.76,-0.325,-0.025
446.76,-0.35,0.125
446.77,-0.37,0.28
446.77,-0.355,0.41
446.77,-0.325,0.5
446.77,-0.305,0.57
446.78,-0.285,0.615
446.78,-0.28,0.645
446.78,-0.29,0.69
446.79,-0.275,0.725
446.79,-0.275,0.755
446.79,-0.285,0.8
446.79,-0.275,0.815
446.8,-0.275,0.83
446.8,-0.29,0.87
446.8,-0.265,0.9
446.81,-0.255,0.915
446.81,-0.255,0.96
446.81,-0.25,0.96
446.81,-0.25,0.97
446.82,-0.26,0.995
446.82,-0.24,1.02
446.82,-0.245,1.04
446.83,-0.24,1.075
446.83,-0.23,1.07
446.83,-0.235,1.085
446.83,-0.22,1.115
446.84,-0.22,1.155
446.84,-0.205,1.175
446.84,-0.215,1.19
446.84,-0.23,1.205
446.85,-0.245,1.215
446.85,-0.26,1.23
446.85,-0.23,1.265
446.86,-0.21,1.305
446.86,-0.215,1.35
446.86,-0.235,1.365
446.86,-0.24,1.385
446.87,-0.24,1.42
446.87,-0.225,1.445
446.87,-0.215,1.495
446.88,-0.22,1.515
446.88,-0.215,1.535
446.88,-0.22,1.555
446.88,-0.22,1.6
446.89,-0.22,1.63
446.89,-0.205,1.66
446.89,-0.21,1.67
446.89,-0.205,1.675
446.9,-0.21,1.69
446.9,-0.195,1.715
446.9,-0.175,1.75
446.91,-0.16,1.76
446.91,-0.14,1.77
446.91,-0.12,1.765
446.91,-0.095,1.75
446.92,-0.09,1.745
446.92,-0.085,1.755
446.92,-0.07,1.75
446.92,-0.06,1.73
446.93,-0.06,1.695
446.93,-0.055,1.66
446.93,-0.05,1.63
446.94,-0.035,1.6
446.94,-0.03,1.565
446.94,-0.025,1.515
446.94,-0.015,1.465
446.95,-0.025,1.42
446.95,-0.01,1.37
446.95,0.005,1.33
446.96,0.005,1.29
446.96,0.015,1.24
446.96,0.01,1.205
446.96,0.01,1.135
446.97,0.02,1.1
446.97,0.015,1.055
446.97,0.005,1.01
446.97,-0.01,0.955
446.98,-0.035,0.875
446.98,-0.06,0.805
446.98,-0.055,0.745
446.99,-0.035,0.715
446.99,-0.03,0.665
446.99,-0.02,0.615
446.99,-0.03,0.55
447,-0.04,0.49
447,-0.055,0.46
447,-0.055,0.415
447.01,-0.055,0.38
447.01,-0.065,0.33
447.01,-0.065,0.29
447.01,-0.08,0.25
447.02,-0.1,0.215
447.02,-0.11,0.195
447.02,-0.12,0.18
447.02,-0.12,0.13
447.03,-0.125,0.1
447.03,-0.135,0.075
447.03,-0.15,0.065
447.04,-0.155,0.075
447.04,-0.155,0.05
447.04,-0.15,0.04
447.04,-0.155,0.02
447.05,-0.155,-0.005
447.05,-0.16,0
447.05,-0.185,0.005
447.06,-0.17,-0.005
447.06,-0.18,-0.01
447.06,-0.185,-0.03
447.06,-0.195,-0.04
447.07,-0.185,-0.035
447.07,-0.19,-0.03
447.07,-0.175,-0.03
447.08,-0.175,-0.025
447.08,-0.185,-0.045
447.08,-0.19,-0.045
447.08,-0.19,-0.035
447.09,-0.19,-0.025
447.09,-0.185,-0.03
447.09,-0.19,-0.02
447.09,-0.2,-0.04
447.1,-0.2,-0.04
447.1,-0.215,-0.03
447.1,-0.205,-0.03
447.11,-0.2,-0.02
447.11,-0.2,-0.025
447.11,-0.205,-0.035
447.11,-0.21,-0.045
447.12,-0.205,-0.03
447.12,-0.205,-0.02
447.12,-0.2,-0.025
447.12,-0.2,-0.03
447.13,-0.205,-0.03
447.13,-0.215,-0.04
447.13,-0.225,-0.035
447.14,-0.22,-0.025
447.14,-0.22,-0.02
447.14,-0.215,-0.02
447.14,-0.23,-0.03
447.15,-0.23,-0.04
447.15,-0.235,-0.045
447.15,-0.225,-0.035
447.16,-0.23,-0.03
447.16,-0.23,-0.04
447.16,-0.23,-0.05
447.16,-0.235,-0.065
447.17,-0.24,-0.055
447.17,-0.24,-0.06
447.17,-0.23,-0.05
447.17,-0.235,-0.06
447.18,-0.245,-0.07
447.18,-0.255,-0.075
447.18,-0.25,-0.085
447.19,-0.25,-0.085
447.19,-0.235,-0.07
447.19,-0.245,-0.085
447.19,-0.24,-0.105
447.2,-0.255,-0.11
447.2,-0.26,-0.11
447.2,-0.25,-0.11
447.21,-0.26,-0.115
447.21,-0.255,-0.12
447.21,-0.26,-0.135
447.21,-0.275,-0.13
447.22,-0.27,-0.13
447.22,-0.27,-0.125
447.22,-0.26,-0.125
447.22,-0.25,-0.125
447.23,-0.26,-0.15
447.23,-0.275,-0.16
447.23,-0.285,-0.145
447.24,-0.285,-0.15
447.24,-0.275,-0.145
447.24,-0.275,-0.145
447.24,-0.28,-0.16
447.25,-0.27,-0.175
447.25,-0.28,-0.17
447.25,-0.27,-0.16
447.26,-0.27,-0.145
447.26,-0.275,-0.17
447.26,-0.275,-0.17
447.26,-0.295,-0.18
447.27,-0.3,-0.175
447.27,-0.28,-0.175
447.27,-0.285,-0.16
447.27,-0.29,-0.175
447.28,-0.29,-0.17
447.28,-0.295,-0.19
447.28,-0.31,-0.185
447.29,-0.29,-0.175
447.29,-0.285,-0.17
447.29,-0.295,-0.185
447.29,-0.29,-0.2
447.3,-0.295,-0.19
447.3,-0.3,-0.195
447.3,-0.305,-0.175
447.31,-0.295,-0.185
447.31,-0.295,-0.195
447.31,-0.29,-0.195
447.31,-0.3,-0.2
447.32,-0.305,-0.2
447.32,-0.29,-0.195
447.32,-0.29,-0.185
447.33,-0.305,-0.185
447.33,-0.3,-0.205
447.33,-0.305,-0.205
447.33,-0.31,-0.21
447.34,-0.29,-0.195
447.34,-0.295,-0.19
447.34,-0.29,-0.185
447.34,-0.3,-0.205
447.35,-0.305,-0.205
447.35,-0.315,-0.205
447.35,-0.29,-0.19
447.36,-0.29,-0.19
447.36,-0.29,-0.185
447.36,-0.3,-0.21
447.36,-0.31,-0.21
447.37,-0.305,-0.21
447.37,-0.295,-0.195
447.37,-0.285,-0.195
447.38,-0.29,-0.2
447.38,-0.31,-0.195
447.38,-0.305,-0.215
447.38,-0.3,-0.21
447.39,-0.295,-0.19
447.39,-0.295,-0.18
447.39,-0.29,-0.195
447.39,-0.295,-0.205
447.4,-0.305,-0.21
447.4,-0.31,-0.215
447.4,-0.29,-0.195
447.41,-0.29,-0.19
447.41,-0.3,-0.195
447.41,-0.29,-0.215
447.41,-0.305,-0.205
447.42,-0.305,-0.21
447.42,-0.29,-0.185
447.42,-0.285,-0.185
447.42,-0.28,-0.16
447.43,-0.28,-0.14
447.43,-0.275,-0.075
447.43,-0.265,0.14
447.44,-0.23,0.52
447.44,-0.19,0.795
447.44,-0.14,0.75
447.44,-0.04,0.495
447.45,0.2,0.32
447.45,0.57,0.26
447.45,0.79,0.25
447.46,0.715,0.225
447.46,0.415,0.19
447.46,0.19,0.145
447.46,0.115,0.095
447.47,0.135,0.04
447.47,0.155,-0.04
447.47,0.18,-0.175
447.47,0.185,-0.34
447.48,0.19,-0.55
447.48,0.195,-0.785
447.48,0.215,-1.02
447.49,0.245,-1.265
447.49,0.255,-1.52
447.49,0.245,-1.78
447.49,0.225,-2.01
447.5,0.2,-2.225
447.5,0.205,-2.395
447.5,0.205,-2.535
447.51,0.22,-2.65
447.51,0.195,-2.745
447.51,0.175,-2.85
447.51,0.15,-2.945
447.52,0.125,-3.055
447.52,0.09,-3.125
447.52,0.05,-3.155
447.52,-0.015,-3.195
447.53,-0.09,-3.23
447.53,-0.14,-3.25
447.53,-0.195,-3.27
447.54,-0.24,-3.26
447.54,-0.325,-3.26
447.54,-0.41,-3.27
447.54,-0.48,-3.28
447.55,-0.52,-3.29
447.55,-0.515,-3.275
447.55,-0.475,-3.26
447.56,-0.445,-3.25
447.56,-0.435,-3.24
447.56,-0.445,-3.23
447.56,-0.47,-3.19
447.57,-0.49,-3.13
447.57,-0.505,-3.03
447.57,-0.505,-2.925
447.58,-0.5,-2.81
447.58,-0.495,-2.665
447.58,-0.485,-2.515
447.58,-0.475,-2.3
447.59,-0.455,-2.075
447.59,-0.43,-1.84
447.59,-0.42,-1.595
447.59,-0.41,-1.37
447.6,-0.42,-1.15
447.6,-0.42,-0.925
447.6,-0.425,-0.69
447.61,-0.42,-0.475
447.61,-0.425,-0.28
447.61,-0.44,-0.13
447.61,-0.455,0.01
447.62,-0.465,0.155
447.62,-0.455,0.295
447.62,-0.44,0.43
447.62,-0.425,0.525
447.63,-0.415,0.585
447.63,-0.415,0.63
447.63,-0.44,0.675
447.64,-0.425,0.725
447.64,-0.415,0.765
447.64,-0.405,0.79
447.64,-0.4,0.825
447.65,-0.41,0.83
447.65,-0.405,0.865
447.65,-0.395,0.895
447.66,-0.4,0.925
447.66,-0.395,0.955
447.66,-0.4,0.955
447.66,-0.4,0.985
447.67,-0.405,1.01
447.67,-0.4,1.04
447.67,-0.4,1.065
447.67,-0.4,1.075
447.68,-0.4,1.095
447.68,-0.41,1.11
447.68,-0.415,1.13
447.69,-0.4,1.16
447.69,-0.4,1.2
447.69,-0.4,1.22
447.69,-0.405,1.24
447.7,-0.415,1.26
447.7,-0.415,1.3
447.7,-0.405,1.33
447.71,-0.41,1.36
447.71,-0.405,1.385
447.71,-0.41,1.41
447.71,-0.41,1.445
447.72,-0.43,1.45
447.72,-0.41,1.49
447.72,-0.405,1.53
447.72,-0.405,1.555
447.73,-0.415,1.565
447.73,-0.41,1.585
447.73,-0.42,1.615
447.74,-0.41,1.66
447.74,-0.39,1.685
447.74,-0.39,1.705
447.74,-0.395,1.715
447.75,-0.385,1.735
447.75,-0.38,1.765
447.75,-0.37,1.78
447.76,-0.365,1.805
447.76,-0.36,1.82
447.76,-0.345,1.82
447.76,-0.35,1.815
447.77,-0.345,1.84
447.77,-0.33,1.84
447.77,-0.31,1.845
447.77,-0.3,1.835
447.78,-0.3,1.82
447.78,-0.29,1.795
447.78,-0.295,1.79
447.79,-0.265,1.785
447.79,-0.25,1.77
447.79,-0.235,1.725
447.79,-0.235,1.695
447.8,-0.235,1.65
447.8,-0.23,1.615
447.8,-0.205,1.57
447.81,-0.19,1.515
447.81,-0.18,1.45
447.81,-0.18,1.385
447.81,-0.165,1.305
447.82,-0.155,1.24
447.82,-0.135,1.18
447.82,-0.12,1.115
447.83,-0.11,1.04
447.83,-0.12,0.96
447.83,-0.1,0.875
447.83,-0.095,0.8
447.84,-0.09,0.725
447.84,-0.095,0.675
447.84,-0.105,0.6
447.84,-0.115,0.53
447.85,-0.115,0.465
447.85,-0.11,0.42
447.85,-0.11,0.38
447.86,-0.1,0.35
447.86,-0.11,0.315
447.86,-0.135,0.28
447.86,-0.14,0.235
447.87,-0.155,0.22
447.87,-0.165,0.2
447.87,-0.175,0.185
447.88,-0.195,0.16
447.88,-0.205,0.115
447.88,-0.22,0.095
447.88,-0.23,0.08
447.89,-0.22,0.075
447.89,-0.22,0.055
447.89,-0.225,0.045
447.89,-0.235,0.025
447.9,-0.25,0.015
447.9,-0.25,0
447.9,-0.245,0.015
447.91,-0.255,0.01
447.91,-0.245,0
447.91,-0.245,-0.01
447.91,-0.255,-0.015
447.92,-0.26,-0.015
447.92,-0.26,-0.01
447.92,-0.245,-0.005
447.92,-0.255,-0.015
447.93,-0.265,-0.03
447.93,-0.275,-0.03
447.93,-0.275,-0.025
447.94,-0.27,-0.02
447.94,-0.26,-0.015
447.94,-0.265,-0.025
447.94,-0.27,-0.03
447.95,-0.285,-0.045
447.95,-0.285,-0.03
447.95,-0.28,-0.025
447.96,-0.275,-0.02
447.96,-0.27,-0.015
447.96,-0.275,-0.03
447.96,-0.29,-0.03
447.97,-0.295,-0.03
447.97,-0.295,-0.015
447.97,-0.27,-0.01
447.97,-0.275,-0.01
447.98,-0.29,-0.03
447.98,-0.29,-0.03
447.98,-0.295,-0.03
447.99,-0.295,-0.015
447.99,-0.285,-0.02
447.99,-0.285,-0.025
447.99,-0.3,-0.045
448,-0.3,-0.05
448,-0.31,-0.05
448,-0.305,-0.045
448.01,-0.29,-0.035
448.01,-0.295,-0.04
448.01,-0.3,-0.065
448.01,-0.31,-0.075
448.02,-0.315,-0.075
448.02,-0.305,-0.065
448.02,-0.295,-0.07
448.02,-0.295,-0.085
448.03,-0.31,-0.09
448.03,-0.32,-0.105
448.03,-0.33,-0.095
448.04,-0.32,-0.095
448.04,-0.31,-0.09
448.04,-0.31,-0.1
448.04,-0.315,-0.105
448.05,-0.325,-0.125
448.05,-0.33,-0.11
448.05,-0.33,-0.12
448.06,-0.32,-0.11
448.06,-0.315,-0.12
448.06,-0.335,-0.13
448.06,-0.345,-0.135
448.07,-0.345,-0.13
448.07,-0.335,-0.135
448.07,-0.33,-0.13
448.08,-0.335,-0.14
448.08,-0.335,-0.15
448.08,-0.355,-0.17
448.08,-0.35,-0.165
448.09,-0.34,-0.15
448.09,-0.34,-0.15
448.09,-0.345,-0.15
448.09,-0.35,-0.17
448.1,-0.35,-0.18
448.1,-0.365,-0.175
448.1,-0.36,-0.16
448.11,-0.335,-0.16
448.11,-0.355,-0.155
448.11,-0.345,-0.175
448.11,-0.365,-0.19
448.12,-0.35,-0.18
448.12,-0.345,-0.165
448.12,-0.34,-0.16
448.12,-0.34,-0.175
448.13,-0.345,-0.195
448.13,-0.355,-0.195
448.13,-0.355,-0.195
448.14,-0.36,-0.18
448.14,-0.35,-0.175
448.14,-0.35,-0.18
448.14,-0.345,-0.19
448.15,-0.345,-0.21
448.15,-0.35,-0.19
448.15,-0.34,-0.2
448.16,-0.35,-0.185
448.16,-0.34,-0.19
448.16,-0.355,-0.195
448.16,-0.355,-0.205
448.17,-0.36,-0.2
448.17,-0.35,-0.185
448.17,-0.33,-0.185
448.17,-0.34,-0.19
448.18,-0.33,-0.195
448.18,-0.335,-0.215
448.18,-0.345,-0.2
448.19,-0.335,-0.2
448.19,-0.33,-0.195
448.19,-0.32,-0.205
448.19,-0.33,-0.205
448.2,-0.33,-0.21
448.2,-0.34,-0.2
448.2,-0.325,-0.205
448.21,-0.32,-0.2
448.21,-0.325,-0.19
448.21,-0.32,-0.205
448.21,-0.33,-0.215
448.22,-0.34,-0.2
448.22,-0.325,-0.195
448.22,-0.32,-0.2
448.22,-0.31,-0.2
448.23,-0.315,-0.205
448.23,-0.335,-0.22
448.23,-0.335,-0.21
448.24,-0.33,-0.2
448.24,-0.315,-0.19
448.24,-0.31,-0.21
448.24,-0.32,-0.22
448.25,-0.325,-0.215
448.25,-0.325,-0.2
448.25,-0.31,-0.195
448.26,-0.3,-0.2
448.26,-0.305,-0.195
448.26,-0.305,-0.195
448.26,-0.305,-0.205
448.27,-0.305,-0.185
448.27,-0.285,-0.155
448.27,-0.27,-0.085
448.27,-0.26,0.11
448.28,-0.245,0.49
448.28,-0.215,0.84
448.28,-0.165,0.83
448.29,-0.055,0.565
448.29,0.22,0.35
448.29,0.615,0.26
448.29,0.83,0.215
448.3,0.68,0.165
448.3,0.35,0.125
448.3,0.14,0.11
448.31,0.105,0.07
448.31,0.13,0
448.31,0.145,-0.11
448.31,0.145,-0.255
448.32,0.15,-0.43
448.32,0.165,-0.635
448.32,0.19,-0.87
448.33,0.2,-1.11
448.33,0.2,-1.37
448.33,0.205,-1.635
448.33,0.195,-1.88
448.34,0.195,-2.095
448.34,0.195,-2.275
448.34,0.19,-2.44
448.34,0.2,-2.6
448.35,0.205,-2.73
448.35,0.195,-2.82
448.35,0.195,-2.915
448.36,0.195,-3.005
448.36,0.17,-3.1
448.36,0.125,-3.175
448.36,0.06,-3.2
448.37,-0.04,-3.215
448.37,-0.075,-3.23
448.37,-0.105,-3.23
448.38,-0.15,-3.26
448.38,-0.245,-3.265
448.38,-0.34,-3.28
448.38,-0.4,-3.275
448.39,-0.415,-3.255
448.39,-0.395,-3.25
448.39,-0.365,-3.255
448.39,-0.345,-3.25
448.4,-0.34,-3.25
448.4,-0.355,-3.22
448.4,-0.36,-3.175
448.41,-0.385,-3.11
448.41,-0.41,-3.045
448.41,-0.435,-2.945
448.41,-0.445,-2.825
448.42,-0.45,-2.685
448.42,-0.42,-2.485
448.42,-0.415,-2.25
448.42,-0.41,-2.015
448.43,-0.405,-1.785
448.43,-0.405,-1.55
448.43,-0.42,-1.28
448.44,-0.4,-1.035
448.44,-0.4,-0.8
448.44,-0.405,-0.575
448.44,-0.425,-0.395
448.45,-0.425,-0.22
448.45,-0.44,-0.06
448.45,-0.445,0.115
448.46,-0.445,0.265
448.46,-0.43,0.41
448.46,-0.43,0.5
448.46,-0.42,0.58
448.47,-0.415,0.655
448.47,-0.41,0.705
448.47,-0.39,0.75
448.47,-0.385,0.795
448.48,-0.395,0.815
448.48,-0.395,0.85
448.48,-0.4,0.88
448.49,-0.385,0.925
448.49,-0.375,0.94
448.49,-0.375,0.975
448.49,-0.385,0.995
448.5,-0.39,1
448.5,-0.385,1.045
448.5,-0.375,1.085
448.51,-0.37,1.095
448.51,-0.375,1.135
448.51,-0.375,1.155
448.51,-0.385,1.175
448.52,-0.385,1.205
448.52,-0.395,1.235
448.52,-0.375,1.265
448.52,-0.385,1.29
448.53,-0.38,1.29
448.53,-0.39,1.32
448.53,-0.395,1.36
448.54,-0.385,1.39
448.54,-0.375,1.43
448.54,-0.365,1.46
448.54,-0.38,1.47
448.55,-0.4,1.495
448.55,-0.4,1.54
448.55,-0.39,1.57
448.56,-0.38,1.6
448.56,-0.38,1.625
448.56,-0.39,1.65
448.56,-0.39,1.665
448.57,-0.395,1.695
448.57,-0.395,1.735
448.57,-0.375,1.75
448.58,-0.38,1.785
448.58,-0.375,1.795
448.58,-0.395,1.81
448.58,-0.395,1.83
448.59,-0.38,1.87
448.59,-0.37,1.87
448.59,-0.36,1.9
448.59,-0.355,1.89
448.6,-0.365,1.895
448.6,-0.35,1.915
448.6,-0.32,1.92
448.61,-0.305,1.92
448.61,-0.29,1.91
448.61,-0.29,1.895
448.61,-0.285,1.88
448.62,-0.295,1.865
448.62,-0.27,1.845
448.62,-0.24,1.825
448.62,-0.235,1.78
448.63,-0.235,1.73
448.63,-0.23,1.685
448.63,-0.225,1.625
448.64,-0.21,1.595
448.64,-0.2,1.53
448.64,-0.2,1.465
448.64,-0.18,1.405
448.65,-0.18,1.325
448.65,-0.175,1.27
448.65,-0.165,1.2
448.66,-0.145,1.14
448.66,-0.15,1.065
448.66,-0.14,1.01
448.66,-0.15,0.93
448.67,-0.14,0.87
448.67,-0.14,0.81
448.67,-0.115,0.755
448.67,-0.11,0.695
448.68,-0.115,0.63
448.68,-0.125,0.57
448.68,-0.135,0.52
448.69,-0.125,0.475
448.69,-0.12,0.43
448.69,-0.12,0.385
448.69,-0.14,0.335
448.7,-0.15,0.29
448.7,-0.155,0.26
448.7,-0.145,0.235
448.71,-0.155,0.215
448.71,-0.165,0.2
448.71,-0.18,0.165
448.71,-0.185,0.12
448.72,-0.19,0.11
448.72,-0.18,0.105
448.72,-0.175,0.09
448.72,-0.185,0.065
448.73,-0.195,0.04
448.73,-0.215,0.025
448.73,-0.21,0.02
448.74,-0.215,0.03
448.74,-0.21,0.025
448.74,-0.21,0.015
448.74,-0.215,0
448.75,-0.215,-0.015
448.75,-0.205,-0.015
448.75,-0.21,-0.015
448.76,-0.2,-0.005
448.76,-0.205,-0.02
448.76,-0.205,-0.02
448.76,-0.22,-0.035
448.77,-0.245,-0.03
448.77,-0.23,-0.025
448.77,-0.22,-0.03
448.77,-0.225,-0.04
448.78,-0.225,-0.05
448.78,-0.235,-0.045
448.78,-0.245,-0.035
448.79,-0.245,-0.04
448.79,-0.24,-0.04
448.79,-0.24,-0.045
448.79,-0.23,-0.05
448.8,-0.235,-0.05
448.8,-0.235,-0.03
448.8,-0.21,-0.04
448.81,-0.215,-0.035
448.81,-0.22,-0.035
448.81,-0.23,-0.04
448.81,-0.25,-0.055
448.82,-0.255,-0.045
448.82,-0.245,-0.03
448.82,-0.22,-0.04
448.83,-0.23,-0.045
448.83,-0.235,-0.05
448.83,-0.25,-0.06
448.83,-0.26,-0.06
448.84,-0.245,-0.05
448.84,-0.24,-0.05
448.84,-0.23,-0.05
448.84,-0.245,-0.055
448.85,-0.255,-0.065
448.85,-0.265,-0.05
448.85,-0.27,-0.035
448.86,-0.265,-0.03
448.86,-0.265,-0.025
448.86,-0.26,-0.035
448.86,-0.275,-0.05
448.87,-0.285,-0.03
448.87,-0.295,-0.025
448.87,-0.265,-0.03
448.88,-0.26,-0.04
448.88,-0.27,-0.035
448.88,-0.285,-0.055
448.88,-0.285,-0.065
448.89,-0.275,-0.04
448.89,-0.265,-0.045
448.89,-0.26,-0.05
448.89,-0.255,-0.06
448.9,-0.265,-0.08
448.9,-0.26,-0.085
448.9,-0.245,-0.09
448.91,-0.225,-0.095
448.91,-0.225,-0.115
448.91,-0.24,-0.13
448.91,-0.25,-0.145
448.92,-0.255,-0.145
448.92,-0.245,-0.15
448.92,-0.225,-0.16
448.92,-0.23,-0.17
448.93,-0.23,-0.185
448.93,-0.24,-0.2
448.93,-0.245,-0.2
448.94,-0.245,-0.2
448.94,-0.24,-0.215
448.94,-0.25,-0.21
448.94,-0.27,-0.22
448.95,-0.27,-0.22
448.95,-0.28,-0.215
448.95,-0.27,-0.19
448.96,-0.26,-0.185
448.96,-0.26,-0.2
448.96,-0.275,-0.205
448.96,-0.28,-0.225
448.97,-0.285,-0.215
448.97,-0.28,-0.2
448.97,-0.27,-0.195
448.97,-0.28,-0.21
448.98,-0.28,-0.22
448.98,-0.285,-0.235
448.98,-0.305,-0.23
448.99,-0.3,-0.22
448.99,-0.295,-0.22
448.99,-0.3,-0.23
448.99,-0.32,-0.24
449,-0.325,-0.245
449,-0.34,-0.24
449,-0.335,-0.225
449.01,-0.31,-0.23
449.01,-0.32,-0.23
449.01,-0.305,-0.24
449.01,-0.325,-0.24
449.02,-0.335,-0.24
449.02,-0.325,-0.225
449.02,-0.305,-0.23
449.02,-0.305,-0.225
449.03,-0.3,-0.25
449.03,-0.32,-0.25
449.03,-0.32,-0.245
449.04,-0.315,-0.225
449.04,-0.32,-0.225
449.04,-0.32,-0.24
449.04,-0.305,-0.245
449.05,-0.32,-0.245
449.05,-0.315,-0.245
449.05,-0.305,-0.23
449.06,-0.31,-0.235
449.06,-0.31,-0.235
449.06,-0.315,-0.25
449.06,-0.33,-0.255
449.07,-0.31,-0.255
449.07,-0.305,-0.235
449.07,-0.285,-0.235
449.08,-0.275,-0.235
449.08,-0.285,-0.245
449.08,-0.295,-0.255
449.08,-0.31,-0.23
449.09,-0.305,-0.235
449.09,-0.29,-0.225
449.09,-0.285,-0.235
449.09,-0.305,-0.245
449.1,-0.31,-0.235
449.1,-0.315,-0.235
449.1,-0.31,-0.21
449.11,-0.305,-0.23
449.11,-0.32,-0.225
449.11,-0.315,-0.23
449.11,-0.3,-0.225
449.12,-0.295,-0.21
449.12,-0.275,-0.185
449.12,-0.25,-0.125
449.12,-0.235,-0.035
449.13,-0.245,0.215
449.13,-0.225,0.595
449.13,-0.2,0.83
449.14,-0.125,0.73
449.14,0.04,0.465
449.14,0.365,0.29
449.14,0.725,0.235
449.15,0.86,0.2
449.15,0.67,0.16
449.15,0.35,0.135
449.16,0.155,0.105
449.16,0.11,0.055
449.16,0.125,-0.02
449.16,0.15,-0.125
449.17,0.17,-0.265
449.17,0.205,-0.445
449.17,0.215,-0.65
449.17,0.22,-0.9
449.18,0.225,-1.15
449.18,0.23,-1.405
449.18,0.21,-1.66
449.19,0.235,-1.905
449.19,0.225,-2.115
449.19,0.225,-2.295
449.19,0.21,-2.445
449.2,0.21,-2.57
449.2,0.235,-2.66
449.2,0.24,-2.71
449.21,0.23,-2.755
449.21,0.215,-2.84
449.21,0.205,-2.935
449.21,0.195,-3.03
449.22,0.15,-3.085
449.22,0.095,-3.12
449.22,0.045,-3.13
449.22,0,-3.16
449.23,-0.05,-3.205
449.23,-0.12,-3.22
449.23,-0.225,-3.235
449.24,-0.325,-3.225
449.24,-0.395,-3.22
449.24,-0.43,-3.225
449.24,-0.44,-3.225
449.25,-0.425,-3.23
449.25,-0.42,-3.22
449.25,-0.39,-3.19
449.26,-0.375,-3.15
449.26,-0.385,-3.105
449.26,-0.405,-3.045
449.26,-0.44,-2.96
449.27,-0.465,-2.85
449.27,-0.47,-2.715
449.27,-0.46,-2.575
449.27,-0.45,-2.435
449.28,-0.455,-2.315
449.28,-0.455,-2.145
449.28,-0.46,-1.945
449.29,-0.435,-1.72
449.29,-0.425,-1.49
449.29,-0.43,-1.285
449.29,-0.415,-1.095
449.3,-0.4,-0.89
449.3,-0.38,-0.67
449.3,-0.35,-0.475
449.31,-0.375,-0.295
449.31,-0.395,-0.13
449.31,-0.425,-0.01
449.31,-0.445,0.115
449.32,-0.455,0.24
449.32,-0.46,0.375
449.32,-0.425,0.48
449.33,-0.4,0.575
449.33,-0.39,0.62
449.33,-0.37,0.675
449.33,-0.38,0.725
449.34,-0.38,0.775
449.34,-0.385,0.81
449.34,-0.4,0.85
449.34,-0.39,0.865
449.35,-0.365,0.905
449.35,-0.345,0.935
449.35,-0.325,0.98
449.36,-0.325,1.01
449.36,-0.355,1.05
449.36,-0.38,1.065
449.36,-0.385,1.09
449.37,-0.37,1.135
449.37,-0.36,1.17
449.37,-0.325,1.2
449.38,-0.33,1.245
449.38,-0.35,1.27
449.38,-0.355,1.29
449.38,-0.37,1.33
449.39,-0.355,1.365
449.39,-0.34,1.42
449.39,-0.34,1.445
449.39,-0.345,1.47
449.4,-0.355,1.5
449.4,-0.36,1.55
449.4,-0.375,1.58
449.41,-0.39,1.615
449.41,-0.395,1.64
449.41,-0.4,1.675
449.41,-0.365,1.695
449.42,-0.32,1.725
449.42,-0.275,1.76
449.42,-0.255,1.78
449.42,-0.25,1.81
449.43,-0.27,1.825
449.43,-0.285,1.86
449.43,-0.305,1.875
449.44,-0.275,1.905
449.44,-0.27,1.93
449.44,-0.26,1.935
449.44,-0.26,1.935
449.45,-0.27,1.925
449.45,-0.275,1.945
449.45,-0.25,1.965
449.46,-0.23,1.94
449.46,-0.225,1.94
449.46,-0.23,1.92
449.46,-0.225,1.87
449.47,-0.23,1.865
449.47,-0.215,1.845
449.47,-0.2,1.815
449.47,-0.175,1.775
449.48,-0.15,1.71
449.48,-0.135,1.66
449.48,-0.13,1.625
449.49,-0.125,1.59
449.49,-0.13,1.53
449.49,-0.145,1.47
449.49,-0.145,1.41
449.5,-0.13,1.34
449.5,-0.095,1.28
449.5,-0.07,1.215
449.51,-0.055,1.155
449.51,-0.07,1.09
449.51,-0.08,1.025
449.51,-0.095,0.955
449.52,-0.095,0.895
449.52,-0.11,0.845
449.52,-0.095,0.785
449.52,-0.085,0.735
449.53,-0.07,0.665
449.53,-0.085,0.615
449.53,-0.11,0.56
449.54,-0.125,0.53
449.54,-0.12,0.495
449.54,-0.11,0.445
449.54,-0.105,0.39
449.55,-0.115,0.345
449.55,-0.12,0.315
449.55,-0.115,0.29
449.56,-0.11,0.255
449.56,-0.125,0.235
449.56,-0.135,0.185
449.56,-0.15,0.165
449.57,-0.16,0.145
449.57,-0.155,0.13
449.57,-0.14,0.12
449.58,-0.155,0.09
449.58,-0.15,0.075
449.58,-0.165,0.045
449.58,-0.165,0.035
449.59,-0.165,0.045
449.59,-0.16,0.035
449.59,-0.16,0.015
449.59,-0.165,-0.01
449.6,-0.185,-0.025
449.6,-0.17,-0.025
449.6,-0.17,-0.025
449.61,-0.165,-0.02
449.61,-0.17,-0.025
449.61,-0.18,-0.045
449.61,-0.2,-0.055
449.62,-0.195,-0.05
449.62,-0.195,-0.06
449.62,-0.175,-0.06
449.62,-0.17,-0.065
449.63,-0.18,-0.065
449.63,-0.185,-0.085
449.63,-0.19,-0.075
449.64,-0.175,-0.065
449.64,-0.17,-0.07
449.64,-0.175,-0.065
449.64,-0.19,-0.08
449.65,-0.2,-0.09
449.65,-0.205,-0.08
449.65,-0.18,-0.065
449.66,-0.18,-0.07
449.66,-0.18,-0.075
449.66,-0.185,-0.07
449.66,-0.2,-0.07
449.67,-0.205,-0.07
449.67,-0.19,-0.055
449.67,-0.185,-0.06
449.67,-0.175,-0.075
449.68,-0.19,-0.075
449.68,-0.19,-0.07
449.68,-0.195,-0.065
449.69,-0.2,-0.06
449.69,-0.205,-0.065
449.69,-0.2,-0.06
449.69,-0.215,-0.08
449.7,-0.21,-0.075
449.7,-0.21,-0.08
449.7,-0.2,-0.065
449.71,-0.19,-0.055
449.71,-0.2,-0.06
449.71,-0.21,-0.07
449.71,-0.21,-0.075
449.72,-0.22,-0.07
449.72,-0.21,-0.06
449.72,-0.21,-0.065
449.72,-0.21,-0.055
449.73,-0.22,-0.075
449.73,-0.235,-0.09
449.73,-0.235,-0.08
449.74,-0.23,-0.075
449.74,-0.225,-0.08
449.74,-0.225,-0.09
449.74,-0.21,-0.085
449.75,-0.235,-0.1
449.75,-0.245,-0.095
449.75,-0.24,-0.075
449.76,-0.225,-0.1
449.76,-0.24,-0.095
449.76,-0.245,-0.105
449.76,-0.245,-0.12
449.77,-0.255,-0.115
449.77,-0.245,-0.115
449.77,-0.235,-0.105
449.77,-0.24,-0.125
449.78,-0.245,-0.14
449.78,-0.25,-0.145
449.78,-0.255,-0.135
449.79,-0.255,-0.14
449.79,-0.24,-0.135
449.79,-0.245,-0.14
449.79,-0.25,-0.155
449.8,-0.26,-0.16
449.8,-0.275,-0.16
449.8,-0.26,-0.145
449.81,-0.255,-0.155
449.81,-0.25,-0.155
449.81,-0.255,-0.17
449.81,-0.26,-0.155
449.82,-0.26,-0.16
449.82,-0.265,-0.145
449.82,-0.27,-0.155
449.83,-0.265,-0.155
449.83,-0.27,-0.165
449.83,-0.27,-0.165
449.83,-0.29,-0.16
449.84,-0.275,-0.14
449.84,-0.265,-0.13
449.84,-0.27,-0.14
449.84,-0.28,-0.13
449.85,-0.285,-0.13
449.85,-0.285,-0.12
449.85,-0.285,-0.11
449.86,-0.27,-0.105
449.86,-0.28,-0.12
449.86,-0.295,-0.125
449.86,-0.31,-0.14
449.87,-0.295,-0.125
449.87,-0.285,-0.11
449.87,-0.27,-0.115
449.88,-0.28,-0.135
449.88,-0.255,-0.135
449.88,-0.255,-0.165
449.88,-0.26,-0.155
449.89,-0.25,-0.155
449.89,-0.25,-0.15
449.89,-0.24,-0.18
449.89,-0.24,-0.185
449.9,-0.24,-0.2
449.9,-0.235,-0.2
449.9,-0.225,-0.21
449.91,-0.215,-0.215
449.91,-0.23,-0.225
449.91,-0.24,-0.225
449.91,-0.255,-0.255
449.92,-0.255,-0.235
449.92,-0.24,-0.23
449.92,-0.225,-0.215
449.92,-0.23,-0.205
449.93,-0.24,-0.2
449.93,-0.255,-0.205
449.93,-0.26,-0.2
449.94,-0.27,-0.19
449.94,-0.265,-0.2
449.94,-0.265,-0.185
449.94,-0.27,-0.18
449.95,-0.265,-0.15
449.95,-0.26,-0.06
449.95,-0.23,0.145
449.96,-0.2,0.545
449.96,-0.15,0.885
449.96,-0.085,0.835
449.96,0.065,0.535
449.97,0.4,0.325
449.97,0.815,0.275
449.97,0.91,0.25
449.97,0.615,0.215
449.98,0.285,0.175
449.98,0.12,0.15
449.98,0.125,0.095
449.99,0.175,0.035
449.99,0.21,-0.08
449.99,0.23,-0.235
449.99,0.24,-0.425
450,0.265,-0.66
450,0.28,-0.875
450,0.315,-1.075
450.01,0.35,-1.285
450.01,0.35,-1.51
450.01,0.35,-1.71
450.01,0.345,-1.845
450.02,0.365,-1.96
450.02,0.41,-2.045
450.02,0.45,-2.135
450.02,0.445,-2.24
450.03,0.45,-2.37
450.03,0.44,-2.51
450.03,0.435,-2.63
450.04,0.42,-2.725
450.04,0.39,-2.795
450.04,0.34,-2.845
450.04,0.285,-2.9
450.05,0.23,-2.955
450.05,0.19,-2.99
450.05,0.135,-3.02
450.06,0.035,-3.065
450.06,-0.065,-3.075
450.06,-0.155,-3.11
450.06,-0.205,-3.13
450.07,-0.21,-3.125
450.07,-0.175,-3.135
450.07,-0.175,-3.12
450.08,-0.19,-3.105
450.08,-0.225,-3.08
450.08,-0.26,-3.025
450.08,-0.305,-2.93
450.09,-0.325,-2.82
450.09,-0.345,-2.71
450.09,-0.375,-2.57
450.09,-0.395,-2.43
450.1,-0.39,-2.255
450.1,-0.405,-2.005
450.1,-0.395,-1.765
450.11,-0.385,-1.515
450.11,-0.405,-1.275
450.11,-0.415,-1.05
450.11,-0.425,-0.85
450.12,-0.445,-0.625
450.12,-0.44,-0.425
450.12,-0.435,-0.235
450.12,-0.46,-0.06
450.13,-0.485,0.065
450.13,-0.48,0.185
450.13,-0.495,0.325
450.14,-0.485,0.465
450.14,-0.455,0.565
450.14,-0.455,0.63
450.14,-0.45,0.68
450.15,-0.455,0.715
450.15,-0.455,0.755
450.15,-0.435,0.805
450.16,-0.425,0.85
450.16,-0.43,0.875
450.16,-0.44,0.905
450.16,-0.44,0.94
450.17,-0.43,0.99
450.17,-0.425,1.025
450.17,-0.42,1.05
450.17,-0.425,1.08
450.18,-0.435,1.105
450.18,-0.425,1.135
450.18,-0.43,1.18
450.19,-0.42,1.225
450.19,-0.415,1.255
450.19,-0.425,1.3
450.19,-0.43,1.32
450.2,-0.43,1.35
450.2,-0.44,1.39
450.2,-0.415,1.46
450.21,-0.415,1.485
450.21,-0.42,1.515
450.21,-0.42,1.55
450.21,-0.425,1.57
450.22,-0.425,1.615
450.22,-0.405,1.655
450.22,-0.4,1.695
450.22,-0.405,1.73
450.23,-0.41,1.74
450.23,-0.415,1.775
450.23,-0.415,1.82
450.24,-0.395,1.85
450.24,-0.395,1.88
450.24,-0.385,1.905
450.24,-0.385,1.92
450.25,-0.39,1.925
450.25,-0.385,1.96
450.25,-0.365,1.975
450.26,-0.35,1.985
450.26,-0.345,1.99
450.26,-0.35,1.985
450.26,-0.35,1.965
450.27,-0.35,1.97
450.27,-0.315,1.96
450.27,-0.3,1.945
450.27,-0.3,1.925
450.28,-0.29,1.885
450.28,-0.275,1.845
450.28,-0.285,1.815
450.29,-0.26,1.775
450.29,-0.25,1.72
450.29,-0.24,1.675
450.29,-0.245,1.615
450.3,-0.245,1.565
450.3,-0.24,1.505
450.3,-0.23,1.465
450.31,-0.21,1.395
450.31,-0.21,1.33
450.31,-0.21,1.245
450.31,-0.215,1.175
450.32,-0.215,1.115
450.32,-0.195,1.055
450.32,-0.2,1.005
450.33,-0.195,0.93
450.33,-0.2,0.85
450.33,-0.215,0.79
450.33,-0.2,0.73
450.34,-0.205,0.69
450.34,-0.195,0.635
450.34,-0.195,0.585
450.34,-0.2,0.53
450.35,-0.215,0.47
450.35,-0.22,0.425
450.35,-0.22,0.4
450.36,-0.205,0.375
450.36,-0.225,0.325
450.36,-0.225,0.285
450.36,-0.24,0.24
450.37,-0.25,0.225
450.37,-0.23,0.22
450.37,-0.225,0.19
450.38,-0.235,0.17
450.38,-0.245,0.125
450.38,-0.255,0.11
450.38,-0.25,0.1
450.39,-0.245,0.1
450.39,-0.24,0.075
450.39,-0.245,0.06
450.39,-0.25,0.05
450.4,-0.27,0.015
450.4,-0.27,0.025
450.4,-0.265,0.025
450.41,-0.265,0.01
450.41,-0.265,0
450.41,-0.26,-0.01
450.41,-0.26,-0.005
450.42,-0.275,-0.005
450.42,-0.26,-0.02
450.42,-0.25,-0.03
450.42,-0.26,-0.03
450.43,-0.27,-0.025
450.43,-0.275,-0.045
450.43,-0.28,-0.035
450.44,-0.27,-0.025
450.44,-0.25,-0.03
450.44,-0.255,-0.05
450.44,-0.265,-0.055
450.45,-0.27,-0.045
450.45,-0.26,-0.045
450.45,-0.265,-0.035
450.46,-0.245,-0.03
450.46,-0.255,-0.035
450.46,-0.265,-0.05
450.46,-0.26,-0.04
450.47,-0.265,-0.05
450.47,-0.25,-0.04
450.47,-0.245,-0.03
450.47,-0.24,-0.035
450.48,-0.245,-0.035
450.48,-0.26,-0.035
450.48,-0.27,-0.025
450.49,-0.26,-0.02
450.49,-0.255,-0.02
450.49,-0.25,-0.025
450.49,-0.26,-0.025
450.5,-0.26,-0.035
450.5,-0.27,-0.035
450.5,-0.255,-0.025
450.51,-0.255,-0.02
450.51,-0.265,-0.025
450.51,-0.27,-0.04
450.51,-0.275,-0.045
450.52,-0.275,-0.04
450.52,-0.265,-0.025
450.52,-0.245,-0.025
450.52,-0.27,-0.03
450.53,-0.275,-0.04
450.53,-0.285,-0.05
450.53,-0.29,-0.05
450.54,-0.27,-0.04
450.54,-0.27,-0.055
450.54,-0.27,-0.04
450.54,-0.29,-0.055
450.55,-0.285,-0.065
450.55,-0.29,-0.06
450.55,-0.28,-0.05
450.56,-0.27,-0.06
450.56,-0.275,-0.06
450.56,-0.285,-0.08
450.56,-0.295,-0.09
450.57,-0.295,-0.09
450.57,-0.27,-0.09
450.57,-0.27,-0.08
450.58,-0.285,-0.08
450.58,-0.29,-0.1
450.58,-0.31,-0.105
450.58,-0.305,-0.11
450.59,-0.29,-0.11
450.59,-0.28,-0.1
450.59,-0.305,-0.12
450.59,-0.305,-0.125
450.6,-0.305,-0.125
450.6,-0.32,-0.13
450.6,-0.3,-0.12
450.61,-0.285,-0.12
450.61,-0.3,-0.125
450.61,-0.315,-0.135
450.61,-0.31,-0.145
450.62,-0.31,-0.135
450.62,-0.305,-0.125
450.62,-0.3,-0.13
450.62,-0.31,-0.145
450.63,-0.315,-0.15
450.63,-0.335,-0.155
450.63,-0.325,-0.145
450.64,-0.31,-0.14
450.64,-0.305,-0.145
450.64,-0.31,-0.145
450.64,-0.305,-0.16
450.65,-0.32,-0.165
450.65,-0.325,-0.15
450.65,-0.32,-0.15
450.66,-0.315,-0.15
450.66,-0.3,-0.15
450.66,-0.315,-0.165
450.66,-0.325,-0.175
450.67,-0.32,-0.175
450.67,-0.32,-0.155
450.67,-0.31,-0.165
450.67,-0.315,-0.165
450.68,-0.32,-0.17
450.68,-0.315,-0.175
450.68,-0.335,-0.165
450.69,-0.325,-0.145
450.69,-0.31,-0.155
450.69,-0.31,-0.165
450.69,-0.315,-0.175
450.7,-0.31,-0.18
450.7,-0.315,-0.17
450.7,-0.315,-0.16
450.71,-0.3,-0.155
450.71,-0.295,-0.165
450.71,-0.305,-0.175
450.71,-0.3,-0.17
450.72,-0.31,-0.16
450.72,-0.3,-0.16
450.72,-0.28,-0.17
450.72,-0.29,-0.155
450.73,-0.3,-0.17
450.73,-0.3,-0.16
450.73,-0.3,-0.15
450.74,-0.27,-0.125
450.74,-0.27,-0.105
450.74,-0.255,-0.04
450.74,-0.26,0.095
450.75,-0.245,0.45
450.75,-0.2,0.815
450.75,-0.11,0.845
450.76,0.03,0.61
450.76,0.345,0.39
450.76,0.73,0.29
450.76,0.87,0.26
450.77,0.63,0.23
450.77,0.32,0.215
450.77,0.155,0.175
450.77,0.135,0.115
450.78,0.155,0.015
450.78,0.16,-0.115
450.78,0.165,-0.29
450.79,0.195,-0.505
450.79,0.23,-0.775
450.79,0.25,-1.045
450.79,0.24,-1.34
450.8,0.25,-1.61
450.8,0.235,-1.88
450.8,0.235,-2.1
450.81,0.245,-2.3
450.81,0.265,-2.465
450.81,0.265,-2.6
450.81,0.26,-2.7
450.82,0.25,-2.795
450.82,0.235,-2.895
450.82,0.215,-2.99
450.83,0.16,-3.05
450.83,0.105,-3.11
450.83,0.02,-3.125
450.83,-0.055,-3.14
450.84,-0.085,-3.16
450.84,-0.145,-3.175
450.84,-0.23,-3.175
450.84,-0.32,-3.195
450.85,-0.39,-3.195
450.85,-0.41,-3.18
450.85,-0.395,-3.165
450.86,-0.345,-3.155
450.86,-0.32,-3.15
450.86,-0.335,-3.135
450.86,-0.33,-3.095
450.87,-0.34,-3.03
450.87,-0.365,-2.92
450.87,-0.365,-2.785
450.88,-0.385,-2.64
450.88,-0.385,-2.505
450.88,-0.38,-2.325
450.88,-0.38,-2.1
450.89,-0.365,-1.855
450.89,-0.345,-1.62
450.89,-0.375,-1.4
450.89,-0.375,-1.21
450.9,-0.39,-1
450.9,-0.385,-0.78
450.9,-0.39,-0.575
450.91,-0.39,-0.385
450.91,-0.4,-0.22
450.91,-0.425,-0.075
450.91,-0.445,0.07
450.92,-0.455,0.22
450.92,-0.455,0.37
450.92,-0.435,0.47
450.92,-0.425,0.555
450.93,-0.44,0.595
450.93,-0.455,0.65
450.93,-0.455,0.695
450.94,-0.445,0.74
450.94,-0.43,0.78
450.94,-0.435,0.81
450.94,-0.445,0.835
450.95,-0.445,0.86
450.95,-0.445,0.89
450.95,-0.44,0.94
450.96,-0.42,0.965
450.96,-0.435,0.99
450.96,-0.435,1.015
450.96,-0.445,1.02
450.97,-0.445,1.065
450.97,-0.435,1.1
450.97,-0.43,1.13
450.97,-0.435,1.16
450.98,-0.43,1.175
450.98,-0.46,1.205
450.98,-0.46,1.25
450.99,-0.445,1.295
450.99,-0.435,1.335
450.99,-0.43,1.35
450.99,-0.435,1.385
451,-0.45,1.415
451,-0.455,1.445
451,-0.44,1.49
451.01,-0.43,1.53
451.01,-0.425,1.55
451.01,-0.425,1.575
451.01,-0.43,1.61
451.02,-0.43,1.635
451.02,-0.415,1.685
451.02,-0.405,1.71
451.02,-0.41,1.73
451.03,-0.42,1.755
451.03,-0.42,1.78
451.03,-0.415,1.795
451.04,-0.405,1.84
451.04,-0.4,1.855
451.04,-0.39,1.87
451.04,-0.385,1.875
451.05,-0.37,1.885
451.05,-0.36,1.91
451.05,-0.35,1.92
451.06,-0.33,1.92
451.06,-0.315,1.92
451.06,-0.32,1.89
451.06,-0.305,1.89
451.07,-0.305,1.885
451.07,-0.295,1.865
451.07,-0.265,1.84
451.08,-0.265,1.81
451.08,-0.255,1.76
451.08,-0.25,1.72
451.08,-0.245,1.665
451.09,-0.225,1.63
451.09,-0.195,1.58
451.09,-0.195,1.515
451.09,-0.19,1.445
451.1,-0.19,1.38
451.1,-0.175,1.315
451.1,-0.16,1.265
451.11,-0.16,1.2
451.11,-0.16,1.12
451.11,-0.165,1.04
451.11,-0.17,0.965
451.12,-0.175,0.895
451.12,-0.155,0.845
451.12,-0.15,0.77
451.12,-0.155,0.715
451.13,-0.15,0.645
451.13,-0.15,0.595
451.13,-0.15,0.535
451.14,-0.135,0.495
451.14,-0.13,0.45
451.14,-0.14,0.4
451.14,-0.155,0.35
451.15,-0.17,0.32
451.15,-0.185,0.29
451.15,-0.175,0.255
451.16,-0.18,0.24
451.16,-0.19,0.205
451.16,-0.205,0.16
451.16,-0.21,0.135
451.17,-0.21,0.125
451.17,-0.195,0.115
451.17,-0.195,0.095
451.17,-0.185,0.09
451.18,-0.2,0.055
451.18,-0.21,0.055
451.18,-0.22,0.05
451.19,-0.22,0.045
451.19,-0.215,0.035
451.19,-0.195,0.03
451.19,-0.19,0.015
451.2,-0.19,0.01
451.2,-0.195,0.005
451.2,-0.19,0.015
451.21,-0.21,0
451.21,-0.22,0.005
451.21,-0.22,-0.005
451.21,-0.24,-0.01
451.22,-0.25,-0.01
451.22,-0.24,0.005
451.22,-0.22,0
451.22,-0.205,-0.005
451.23,-0.22,-0.015
451.23,-0.225,-0.015
451.23,-0.225,-0.015
451.24,-0.22,-0.02
451.24,-0.195,-0.005
451.24,-0.205,-0.005
451.24,-0.22,-0.005
451.25,-0.23,-0.02
451.25,-0.245,-0.01
451.25,-0.235,0.01
451.26,-0.23,0.005
451.26,-0.225,0
451.26,-0.22,-0.005
451.26,-0.21,-0.015
451.27,-0.2,-0.015
451.27,-0.2,0.005
451.27,-0.2,-0.01
451.27,-0.205,-0.005
451.28,-0.235,-0.03
451.28,-0.255,-0.025
451.28,-0.245,-0.02
451.29,-0.23,-0.005
451.29,-0.22,-0.015
451.29,-0.245,-0.015
451.29,-0.255,-0.02
451.3,-0.26,-0.04
451.3,-0.26,-0.025
451.3,-0.255,-0.015
451.31,-0.225,-0.025
451.31,-0.235,-0.025
451.31,-0.23,-0.045
451.31,-0.255,-0.05
451.32,-0.25,-0.05
451.32,-0.26,-0.035
451.32,-0.225,-0.05
451.33,-0.235,-0.05
451.33,-0.25,-0.065
451.33,-0.265,-0.075
451.33,-0.265,-0.07
451.34,-0.265,-0.065
451.34,-0.255,-0.065
451.34,-0.265,-0.075
451.34,-0.26,-0.095
451.35,-0.265,-0.095
451.35,-0.26,-0.085
451.35,-0.255,-0.09
451.36,-0.255,-0.09
451.36,-0.275,-0.1
451.36,-0.275,-0.11
451.36,-0.275,-0.115
451.37,-0.26,-0.115
451.37,-0.245,-0.11
451.37,-0.23,-0.105
451.38,-0.23,-0.115
451.38,-0.25,-0.115
451.38,-0.285,-0.125
451.38,-0.295,-0.12
451.39,-0.3,-0.115
451.39,-0.28,-0.11
451.39,-0.27,-0.13
451.39,-0.265,-0.135
451.4,-0.285,-0.14
451.4,-0.28,-0.135
451.4,-0.285,-0.125
451.41,-0.28,-0.12
451.41,-0.275,-0.14
451.41,-0.295,-0.145
451.41,-0.295,-0.155
451.42,-0.295,-0.135
451.42,-0.27,-0.13
451.42,-0.245,-0.135
451.42,-0.25,-0.135
451.43,-0.255,-0.155
451.43,-0.265,-0.145
451.43,-0.26,-0.155
451.44,-0.255,-0.145
451.44,-0.25,-0.145
451.44,-0.26,-0.145
451.44,-0.28,-0.15
451.45,-0.3,-0.145
451.45,-0.32,-0.15
451.45,-0.315,-0.135
451.46,-0.295,-0.145
451.46,-0.28,-0.145
451.46,-0.28,-0.16
451.46,-0.275,-0.155
451.47,-0.275,-0.165
451.47,-0.265,-0.145
451.47,-0.27,-0.135
451.47,-0.27,-0.145
451.48,-0.295,-0.145
451.48,-0.3,-0.155
451.48,-0.285,-0.155
451.49,-0.265,-0.145
451.49,-0.255,-0.14
451.49,-0.255,-0.14
451.49,-0.265,-0.155
451.5,-0.27,-0.16
451.5,-0.29,-0.16
451.5,-0.27,-0.14
451.51,-0.275,-0.15
451.51,-0.26,-0.14
451.51,-0.26,-0.155
451.51,-0.26,-0.155
451.52,-0.24,-0.15
451.52,-0.245,-0.145
451.52,-0.245,-0.14
451.52,-0.245,-0.13
451.53,-0.255,-0.135
451.53,-0.265,-0.125
451.53,-0.255,-0.125
451.54,-0.255,-0.085
451.54,-0.225,-0.03
451.54,-0.225,0.13
451.54,-0.2,0.445
451.55,-0.16,0.875
451.55,-0.11,1.015
451.55,-0.005,0.81
451.56,0.215,0.52
451.56,0.59,0.36
451.56,0.9,0.305
451.56,0.855,0.27
451.57,0.55,0.23
451.57,0.28,0.205
451.57,0.2,0.17
451.58,0.21,0.115
451.58,0.21,0.035
451.58,0.195,-0.095
451.58,0.205,-0.235
451.59,0.225,-0.405
451.59,0.245,-0.625
451.59,0.24,-0.88
451.59,0.245,-1.13
451.6,0.22,-1.41
451.6,0.215,-1.68
451.6,0.21,-1.915
451.61,0.19,-2.115
451.61,0.19,-2.295
451.61,0.195,-2.44
451.61,0.19,-2.555
451.62,0.18,-2.635
451.62,0.16,-2.7
451.62,0.16,-2.8
451.62,0.145,-2.905
451.63,0.115,-2.975
451.63,0.065,-3.02
451.63,-0.015,-3.045
451.64,-0.075,-3.06
451.64,-0.115,-3.075
451.64,-0.15,-3.08
451.64,-0.22,-3.115
451.65,-0.32,-3.125
451.65,-0.41,-3.12
451.65,-0.46,-3.105
451.66,-0.455,-3.1
451.66,-0.415,-3.1
451.66,-0.395,-3.105
451.66,-0.39,-3.11
451.67,-0.425,-3.085
451.67,-0.46,-3.045
451.67,-0.49,-2.995
451.67,-0.495,-2.94
451.68,-0.51,-2.85
451.68,-0.51,-2.74
451.68,-0.485,-2.585
451.69,-0.45,-2.41
451.69,-0.415,-2.215
451.69,-0.415,-1.985
451.69,-0.405,-1.76
451.7,-0.41,-1.525
451.7,-0.405,-1.3
451.7,-0.395,-1.095
451.71,-0.38,-0.88
451.71,-0.38,-0.685
451.71,-0.4,-0.495
451.71,-0.41,-0.325
451.72,-0.435,-0.15
451.72,-0.425,0.005
451.72,-0.425,0.15
451.72,-0.415,0.275
451.73,-0.405,0.4
451.73,-0.395,0.51
451.73,-0.385,0.595
451.74,-0.39,0.66
451.74,-0.375,0.71
451.74,-0.365,0.74
451.74,-0.36,0.775
451.75,-0.365,0.8
451.75,-0.365,0.835
451.75,-0.35,0.865
451.76,-0.345,0.895
451.76,-0.365,0.91
451.76,-0.385,0.93
451.76,-0.4,0.94
451.77,-0.4,0.98
451.77,-0.39,1.015
451.77,-0.37,1.03
451.77,-0.365,1.05
451.78,-0.38,1.075
451.78,-0.385,1.08
451.78,-0.385,1.11
451.79,-0.365,1.155
451.79,-0.365,1.175
451.79,-0.37,1.185
451.79,-0.375,1.205
451.8,-0.37,1.245
451.8,-0.365,1.265
451.8,-0.36,1.315
451.81,-0.355,1.355
451.81,-0.38,1.38
451.81,-0.39,1.385
451.81,-0.385,1.425
451.82,-0.39,1.455
451.82,-0.38,1.5
451.82,-0.38,1.525
451.83,-0.38,1.545
451.83,-0.36,1.575
451.83,-0.355,1.605
451.83,-0.345,1.635
451.84,-0.34,1.675
451.84,-0.325,1.7
451.84,-0.33,1.735
451.84,-0.32,1.74
451.85,-0.325,1.765
451.85,-0.295,1.795
451.85,-0.275,1.82
451.86,-0.265,1.835
451.86,-0.245,1.855
451.86,-0.25,1.84
451.86,-0.235,1.855
451.87,-0.235,1.85
451.87,-0.225,1.87
451.87,-0.205,1.865
451.88,-0.2,1.84
451.88,-0.205,1.825
451.88,-0.195,1.795
451.88,-0.18,1.785
451.89,-0.15,1.76
451.89,-0.135,1.72
451.89,-0.105,1.67
451.89,-0.1,1.605
451.9,-0.085,1.56
451.9,-0.085,1.505
451.9,-0.07,1.445
451.91,-0.05,1.385
451.91,-0.065,1.32
451.91,-0.08,1.24
451.91,-0.085,1.185
451.92,-0.085,1.12
451.92,-0.06,1.06
451.92,-0.04,0.995
451.92,-0.04,0.92
451.93,-0.055,0.84
451.93,-0.09,0.765
451.93,-0.1,0.715
451.94,-0.07,0.665
451.94,-0.06,0.605
451.94,-0.065,0.56
451.94,-0.065,0.49
451.95,-0.08,0.44
451.95,-0.09,0.42
451.95,-0.09,0.38
451.96,-0.08,0.34
451.96,-0.085,0.3
451.96,-0.11,0.26
451.96,-0.13,0.23
451.97,-0.135,0.21
451.97,-0.145,0.2
451.97,-0.145,0.18
451.97,-0.145,0.15
451.98,-0.15,0.125
451.98,-0.16,0.11
451.98,-0.18,0.11
451.99,-0.175,0.1
451.99,-0.175,0.085
451.99,-0.18,0.08
451.99,-0.18,0.08
452,-0.195,0.065
452,-0.195,0.07
452,-0.185,0.07
452.01,-0.175,0.07
452.01,-0.185,0.06
452.01,-0.2,0.05
452.01,-0.205,0.05
452.02,-0.205,0.045
452.02,-0.19,0.05
452.02,-0.195,0.06
452.02,-0.195,0.05
452.03,-0.205,0.035
452.03,-0.215,0.02
452.03,-0.215,0.03
452.04,-0.2,0.045
452.04,-0.185,0.05
452.04,-0.2,0.04
452.04,-0.215,0.03
452.05,-0.215,0.03
452.05,-0.22,0.03
452.05,-0.215,0.05
452.06,-0.205,0.045
452.06,-0.215,0.035
452.06,-0.21,0.025
452.06,-0.225,0.03
452.07,-0.225,0.03
452.07,-0.225,0.02
452.07,-0.215,0.025
452.08,-0.22,0.025
452.08,-0.23,0.02
452.08,-0.24,0.005
452.08,-0.235,0.02
452.09,-0.235,0.035
452.09,-0.235,0.035
452.09,-0.23,0.02
452.09,-0.245,0.005
452.1,-0.24,0
452.1,-0.24,0.005
452.1,-0.235,0.01
452.11,-0.235,0.01
452.11,-0.24,0
452.11,-0.255,-0.015
452.11,-0.25,-0.025
452.12,-0.255,-0.01
452.12,-0.27,-0.01
452.12,-0.245,-0.025
452.12,-0.245,-0.03
452.13,-0.255,-0.04
452.13,-0.28,-0.06
452.13,-0.275,-0.04
452.14,-0.265,-0.035
452.14,-0.255,-0.05
452.14,-0.255,-0.06
452.14,-0.265,-0.065
452.15,-0.27,-0.07
452.15,-0.275,-0.07
452.15,-0.265,-0.06
452.16,-0.27,-0.07
452.16,-0.27,-0.07
452.16,-0.28,-0.08
452.16,-0.29,-0.09
452.17,-0.3,-0.08
452.17,-0.285,-0.085
452.17,-0.29,-0.08
452.17,-0.28,-0.095
452.18,-0.29,-0.105
452.18,-0.295,-0.105
452.18,-0.31,-0.105
452.19,-0.305,-0.1
452.19,-0.305,-0.1
452.19,-0.29,-0.105
452.19,-0.31,-0.11
452.2,-0.32,-0.12
452.2,-0.315,-0.12
452.2,-0.31,-0.105
452.21,-0.3,-0.11
452.21,-0.315,-0.13
452.21,-0.315,-0.135
452.21,-0.335,-0.14
452.22,-0.335,-0.125
452.22,-0.325,-0.13
452.22,-0.305,-0.135
452.22,-0.32,-0.14
452.23,-0.325,-0.14
452.23,-0.335,-0.15
452.23,-0.325,-0.15
452.24,-0.33,-0.135
452.24,-0.31,-0.135
452.24,-0.31,-0.145
452.24,-0.33,-0.145
452.25,-0.33,-0.165
452.25,-0.33,-0.155
452.25,-0.315,-0.14
452.26,-0.315,-0.135
452.26,-0.325,-0.155
452.26,-0.315,-0.16
452.26,-0.335,-0.165
452.27,-0.335,-0.145
452.27,-0.335,-0.14
452.27,-0.33,-0.135
452.27,-0.335,-0.15
452.28,-0.32,-0.16
452.28,-0.33,-0.155
452.28,-0.345,-0.155
452.29,-0.32,-0.145
452.29,-0.32,-0.15
452.29,-0.325,-0.15
452.29,-0.325,-0.175
452.3,-0.35,-0.165
452.3,-0.345,-0.155
452.3,-0.335,-0.155
452.31,-0.315,-0.145
452.31,-0.325,-0.16
452.31,-0.325,-0.17
452.31,-0.33,-0.175
452.32,-0.315,-0.17
452.32,-0.335,-0.15
452.32,-0.33,-0.15
452.33,-0.32,-0.16
452.33,-0.32,-0.17
452.33,-0.33,-0.17
452.33,-0.325,-0.155
452.34,-0.315,-0.15
452.34,-0.3,-0.15
452.34,-0.31,-0.135
452.34,-0.305,-0.15
452.35,-0.31,-0.15
452.35,-0.305,-0.12
452.35,-0.305,-0.07
452.36,-0.285,-0.005
452.36,-0.265,0.195
452.36,-0.245,0.565
452.36,-0.22,0.895
452.37,-0.16,0.89
452.37,-0.05,0.65
452.37,0.2,0.42
452.38,0.585,0.325
452.38,0.815,0.275
452.38,0.7,0.245
452.38,0.395,0.215
452.39,0.18,0.205
452.39,0.11,0.175
452.39,0.13,0.115
452.39,0.135,0.04
452.4,0.14,-0.065
452.4,0.15,-0.195
452.4,0.17,-0.36
452.41,0.19,-0.565
452.41,0.195,-0.785
452.41,0.205,-1.02
452.41,0.215,-1.265
452.42,0.21,-1.51
452.42,0.205,-1.725
452.42,0.2,-1.915
452.42,0.19,-2.09
452.43,0.185,-2.265
452.43,0.195,-2.39
452.43,0.185,-2.46
452.44,0.185,-2.55
452.44,0.185,-2.645
452.44,0.155,-2.76
452.44,0.14,-2.865
452.45,0.1,-2.94
452.45,0.045,-2.975
452.45,-0.01,-2.995
452.46,-0.065,-3.015
452.46,-0.105,-3.035
452.46,-0.15,-3.075
452.46,-0.22,-3.095
452.47,-0.31,-3.105
452.47,-0.375,-3.09
452.47,-0.41,-3.1
452.47,-0.42,-3.1
452.48,-0.405,-3.115
452.48,-0.38,-3.105
452.48,-0.355,-3.09
452.49,-0.35,-3.075
452.49,-0.345,-3.055
452.49,-0.365,-3.025
452.49,-0.4,-2.985
452.5,-0.435,-2.905
452.5,-0.45,-2.795
452.5,-0.44,-2.68
452.51,-0.43,-2.55
452.51,-0.42,-2.395
452.51,-0.4,-2.23
452.51,-0.41,-2.01
452.52,-0.405,-1.78
452.52,-0.39,-1.56
452.52,-0.38,-1.335
452.52,-0.385,-1.12
452.53,-0.4,-0.93
452.53,-0.41,-0.72
452.53,-0.43,-0.515
452.54,-0.435,-0.34
452.54,-0.445,-0.175
452.54,-0.465,-0.015
452.54,-0.48,0.115
452.55,-0.49,0.25
452.55,-0.475,0.38
452.55,-0.465,0.495
452.56,-0.455,0.555
452.56,-0.46,0.615
452.56,-0.48,0.64
452.56,-0.485,0.68
452.57,-0.49,0.71
452.57,-0.485,0.75
452.57,-0.46,0.78
452.58,-0.46,0.815
452.58,-0.48,0.815
452.58,-0.475,0.85
452.58,-0.48,0.87
452.59,-0.47,0.9
452.59,-0.47,0.915
452.59,-0.485,0.935
452.59,-0.48,0.935
452.6,-0.5,0.955
452.6,-0.5,0.98
452.6,-0.495,1.015
452.61,-0.48,1.035
452.61,-0.49,1.06
452.61,-0.505,1.065
452.61,-0.52,1.09
452.62,-0.52,1.12
452.62,-0.52,1.16
452.62,-0.505,1.18
452.62,-0.525,1.2
452.63,-0.525,1.22
452.63,-0.54,1.245
452.63,-0.54,1.28
452.64,-0.535,1.325
452.64,-0.525,1.355
452.64,-0.525,1.385
452.64,-0.53,1.405
452.65,-0.54,1.43
452.65,-0.53,1.465
452.65,-0.53,1.52
452.66,-0.525,1.545
452.66,-0.53,1.57
452.66,-0.52,1.6
452.66,-0.515,1.63
452.67,-0.515,1.66
452.67,-0.51,1.705
452.67,-0.49,1.72
452.67,-0.48,1.74
452.68,-0.475,1.765
452.68,-0.485,1.785
452.68,-0.475,1.815
452.69,-0.455,1.825
452.69,-0.425,1.855
452.69,-0.42,1.855
452.69,-0.425,1.845
452.7,-0.415,1.845
452.7,-0.405,1.86
452.7,-0.385,1.855
452.71,-0.36,1.85
452.71,-0.34,1.82
452.71,-0.34,1.795
452.71,-0.34,1.77
452.72,-0.325,1.75
452.72,-0.295,1.715
452.72,-0.28,1.685
452.72,-0.265,1.635
452.73,-0.265,1.57
452.73,-0.265,1.53
452.73,-0.245,1.485
452.74,-0.23,1.435
452.74,-0.215,1.365
452.74,-0.195,1.305
452.74,-0.2,1.23
452.75,-0.2,1.175
452.75,-0.19,1.1
452.75,-0.17,1.04
452.76,-0.17,0.985
452.76,-0.165,0.935
452.76,-0.16,0.845
452.76,-0.17,0.775
452.77,-0.16,0.72
452.77,-0.16,0.67
452.77,-0.155,0.605
452.77,-0.16,0.565
452.78,-0.17,0.5
452.78,-0.19,0.455
452.78,-0.185,0.415
452.79,-0.18,0.395
452.79,-0.17,0.355
452.79,-0.19,0.31
452.79,-0.2,0.27
452.8,-0.21,0.245
452.8,-0.215,0.225
452.8,-0.22,0.205
452.81,-0.215,0.175
452.81,-0.225,0.17
452.81,-0.235,0.13
452.81,-0.245,0.125
452.82,-0.25,0.115
452.82,-0.24,0.11
452.82,-0.24,0.1
452.83,-0.245,0.095
452.83,-0.26,0.06
452.83,-0.27,0.06
452.83,-0.265,0.055
452.84,-0.265,0.06
452.84,-0.255,0.05
452.84,-0.26,0.055
452.84,-0.28,0.04
452.85,-0.28,0.03
452.85,-0.275,0.04
452.85,-0.27,0.045
452.86,-0.26,0.04
452.86,-0.265,0.035
452.86,-0.265,0.02
452.86,-0.285,0.025
452.87,-0.27,0.035
452.87,-0.265,0.045
452.87,-0.275,0.04
452.88,-0.26,0.035
452.88,-0.275,0.025
452.88,-0.275,0.025
452.88,-0.27,0.03
452.89,-0.27,0.045
452.89,-0.265,0.05
452.89,-0.265,0.035
452.89,-0.28,0.015
452.9,-0.29,0.015
452.9,-0.29,0.025
452.9,-0.275,0.03
452.91,-0.27,0.04
452.91,-0.26,0.03
452.91,-0.27,0.02
452.91,-0.275,0.01
452.92,-0.285,0.035
452.92,-0.28,0.04
452.92,-0.285,0.04
452.92,-0.285,0.03
452.93,-0.285,0.01
452.93,-0.3,0.015
452.93,-0.3,0.025
452.94,-0.295,0.025
452.94,-0.285,0.015
452.94,-0.285,0.015
452.94,-0.295,0
452.95,-0.3,0
452.95,-0.305,-0.005
452.95,-0.3,0.01
452.96,-0.29,-0.005
452.96,-0.305,-0.01
452.96,-0.315,-0.015
452.96,-0.32,-0.025
452.97,-0.325,-0.025
452.97,-0.31,-0.01
452.97,-0.305,-0.015
452.97,-0.305,-0.03
452.98,-0.32,-0.045
452.98,-0.325,-0.055
452.98,-0.325,-0.04
452.99,-0.32,-0.035
452.99,-0.315,-0.04
452.99,-0.32,-0.045
452.99,-0.31,-0.07
453,-0.34,-0.075
453,-0.33,-0.07
453,-0.32,-0.07
453.01,-0.315,-0.06
453.01,-0.31,-0.07
453.01,-0.315,-0.08
453.01,-0.335,-0.085
453.02,-0.33,-0.085
453.02,-0.325,-0.07
453.02,-0.315,-0.085
453.02,-0.32,-0.08
453.03,-0.335,-0.1
453.03,-0.345,-0.1
453.03,-0.335,-0.1
453.04,-0.325,-0.085
453.04,-0.33,-0.1
453.04,-0.325,-0.105
453.04,-0.33,-0.115
453.05,-0.335,-0.125
453.05,-0.335,-0.11
453.05,-0.325,-0.11
453.06,-0.325,-0.115
453.06,-0.33,-0.115
453.06,-0.325,-0.14
453.06,-0.34,-0.14
453.07,-0.35,-0.135
453.07,-0.345,-0.135
453.07,-0.325,-0.13
453.08,-0.34,-0.135
453.08,-0.335,-0.145
453.08,-0.35,-0.15
453.08,-0.345,-0.155
453.09,-0.33,-0.13
453.09,-0.325,-0.135
453.09,-0.32,-0.145
453.09,-0.325,-0.155
453.1,-0.34,-0.165
453.1,-0.36,-0.155
453.1,-0.345,-0.145
453.11,-0.335,-0.155
453.11,-0.34,-0.165
453.11,-0.34,-0.165
453.11,-0.345,-0.18
453.12,-0.34,-0.155
453.12,-0.33,-0.15
453.12,-0.325,-0.165
453.12,-0.325,-0.155
453.13,-0.34,-0.155
453.13,-0.335,-0.18
453.13,-0.33,-0.16
453.14,-0.325,-0.15
453.14,-0.32,-0.15
453.14,-0.315,-0.16
453.14,-0.325,-0.17
453.15,-0.345,-0.175
453.15,-0.345,-0.155
453.15,-0.335,-0.16
453.16,-0.31,-0.15
453.16,-0.315,-0.16
453.16,-0.33,-0.17
453.16,-0.335,-0.18
453.17,-0.325,-0.18
453.17,-0.315,-0.16
453.17,-0.315,-0.16
453.17,-0.31,-0.155
453.18,-0.325,-0.17
453.18,-0.335,-0.185
453.18,-0.325,-0.175
453.19,-0.315,-0.16
453.19,-0.3,-0.155
453.19,-0.305,-0.165
453.19,-0.315,-0.165
453.2,-0.33,-0.175
453.2,-0.305,-0.16
453.2,-0.3,-0.15
453.21,-0.3,-0.165
453.21,-0.3,-0.155
453.21,-0.3,-0.17
453.21,-0.3,-0.16
453.22,-0.295,-0.145
453.22,-0.27,-0.12
453.22,-0.265,-0.065
453.22,-0.26,0.035
453.23,-0.255,0.29
453.23,-0.24,0.68
453.23,-0.195,0.93
453.24,-0.12,0.825
453.24,0.02,0.565
453.24,0.295,0.37
453.24,0.63,0.295
453.25,0.81,0.245
453.25,0.685,0.22
453.25,0.395,0.18
453.26,0.205,0.155
453.26,0.135,0.115
453.26,0.135,0.07
453.26,0.13,0.005
453.27,0.145,-0.07
453.27,0.16,-0.17
453.27,0.17,-0.325
453.27,0.18,-0.515
453.28,0.185,-0.725
453.28,0.185,-0.965
453.28,0.2,-1.165
453.29,0.215,-1.395
453.29,0.21,-1.64
453.29,0.205,-1.885
453.29,0.18,-2.07
453.3,0.18,-2.23
453.3,0.19,-2.385
453.3,0.2,-2.485
453.31,0.21,-2.57
453.31,0.195,-2.66
453.31,0.18,-2.76
453.31,0.17,-2.885
453.32,0.14,-2.955
453.32,0.105,-3.005
453.32,0.045,-3.045
453.33,-0.025,-3.06
453.33,-0.075,-3.095
453.33,-0.13,-3.11
453.33,-0.18,-3.11
453.34,-0.245,-3.105
453.34,-0.32,-3.11
453.34,-0.375,-3.13
453.34,-0.38,-3.125
453.35,-0.385,-3.12
453.35,-0.365,-3.12
453.35,-0.335,-3.095
453.36,-0.315,-3.095
453.36,-0.325,-3.085
453.36,-0.355,-3.075
453.36,-0.395,-3.03
453.37,-0.405,-2.96
453.37,-0.415,-2.87
453.37,-0.425,-2.775
453.38,-0.44,-2.66
453.38,-0.43,-2.53
453.38,-0.43,-2.39
453.38,-0.415,-2.19
453.39,-0.4,-1.965
453.39,-0.4,-1.73
453.39,-0.4,-1.515
453.39,-0.395,-1.325
453.4,-0.405,-1.13
453.4,-0.405,-0.895
453.4,-0.39,-0.67
453.41,-0.385,-0.475
453.41,-0.405,-0.305
453.41,-0.415,-0.15
453.41,-0.44,-0.01
453.42,-0.435,0.145
453.42,-0.43,0.295
453.42,-0.405,0.43
453.42,-0.4,0.54
453.43,-0.4,0.625
453.43,-0.4,0.69
453.43,-0.405,0.755
453.44,-0.41,0.815
453.44,-0.395,0.845
453.44,-0.395,0.885
453.44,-0.395,0.91
453.45,-0.4,0.925
453.45,-0.4,0.975
453.45,-0.39,1.005
453.46,-0.385,1.03
453.46,-0.395,1.06
453.46,-0.39,1.075
453.46,-0.39,1.09
453.47,-0.385,1.115
453.47,-0.38,1.14
453.47,-0.36,1.16
453.47,-0.37,1.16
453.48,-0.365,1.165
453.48,-0.39,1.19
453.48,-0.375,1.21
453.49,-0.375,1.25
453.49,-0.355,1.26
453.49,-0.345,1.27
453.49,-0.35,1.28
453.5,-0.36,1.295
453.5,-0.36,1.33
453.5,-0.35,1.37
453.51,-0.355,1.39
453.51,-0.365,1.415
453.51,-0.365,1.43
453.51,-0.39,1.46
453.52,-0.385,1.48
453.52,-0.38,1.545
453.52,-0.375,1.59
453.52,-0.37,1.615
453.53,-0.395,1.64
453.53,-0.42,1.66
453.53,-0.405,1.69
453.54,-0.42,1.72
453.54,-0.4,1.735
453.54,-0.4,1.77
453.54,-0.415,1.77
453.55,-0.42,1.795
453.55,-0.415,1.825
453.55,-0.41,1.85
453.56,-0.4,1.86
453.56,-0.395,1.87
453.56,-0.395,1.86
453.56,-0.405,1.88
453.57,-0.39,1.885
453.57,-0.37,1.895
453.57,-0.365,1.89
453.58,-0.355,1.88
453.58,-0.36,1.86
453.58,-0.365,1.84
453.58,-0.345,1.815
453.59,-0.335,1.81
453.59,-0.315,1.77
453.59,-0.31,1.74
453.59,-0.31,1.685
453.6,-0.325,1.645
453.6,-0.305,1.6
453.6,-0.285,1.565
453.61,-0.27,1.51
453.61,-0.255,1.45
453.61,-0.245,1.375
453.61,-0.245,1.315
453.62,-0.235,1.265
453.62,-0.22,1.21
453.62,-0.2,1.145
453.62,-0.2,1.07
453.63,-0.2,1.005
453.63,-0.205,0.93
453.63,-0.205,0.88
453.64,-0.195,0.815
453.64,-0.17,0.745
453.64,-0.18,0.69
453.64,-0.18,0.625
453.65,-0.175,0.555
453.65,-0.18,0.525
453.65,-0.17,0.49
453.66,-0.16,0.435
453.66,-0.18,0.385
453.66,-0.185,0.345
453.66,-0.21,0.315
453.67,-0.2,0.275
453.67,-0.21,0.265
453.67,-0.19,0.23
453.67,-0.2,0.21
453.68,-0.22,0.155
453.68,-0.225,0.15
453.68,-0.215,0.14
453.69,-0.2,0.12
453.69,-0.2,0.105
453.69,-0.195,0.085
453.69,-0.205,0.055
453.7,-0.225,0.035
453.7,-0.22,0.04
453.7,-0.21,0.04
453.71,-0.215,0.04
453.71,-0.225,0.03
453.71,-0.25,0.015
453.71,-0.265,0.005
453.72,-0.255,0.005
453.72,-0.245,0.015
453.72,-0.24,-0.005
453.72,-0.235,0.01
453.73,-0.24,-0.015
453.73,-0.25,-0.02
453.73,-0.25,-0.01
453.74,-0.235,0
453.74,-0.245,-0.005
453.74,-0.245,-0.01
453.74,-0.265,-0.025
453.75,-0.27,-0.02
453.75,-0.285,-0.015
453.75,-0.27,0
453.76,-0.245,-0.01
453.76,-0.245,-0.01
453.76,-0.24,-0.03
453.76,-0.245,-0.02
453.77,-0.26,-0.02
453.77,-0.245,-0.01
453.77,-0.255,-0.01
453.77,-0.26,-0.015
453.78,-0.27,-0.03
453.78,-0.275,-0.035
453.78,-0.29,-0.02
453.79,-0.285,-0.01
453.79,-0.29,-0.015
453.79,-0.295,-0.005
453.79,-0.295,-0.02
453.8,-0.29,-0.025
453.8,-0.275,-0.015
453.8,-0.27,-0.015
453.81,-0.26,-0.02
453.81,-0.265,-0.02
453.81,-0.27,-0.04
453.81,-0.285,-0.04
453.82,-0.3,-0.04
453.82,-0.295,-0.03
453.82,-0.29,-0.04
453.83,-0.295,-0.045
453.83,-0.3,-0.045
453.83,-0.305,-0.055
453.83,-0.295,-0.055
453.84,-0.285,-0.05
453.84,-0.28,-0.05
453.84,-0.285,-0.065
453.84,-0.295,-0.08
453.85,-0.3,-0.08
453.85,-0.3,-0.08
453.85,-0.29,-0.075
453.86,-0.29,-0.07
453.86,-0.29,-0.09
453.86,-0.305,-0.095
453.86,-0.315,-0.095
453.87,-0.32,-0.1
453.87,-0.305,-0.085
453.87,-0.295,-0.095
453.88,-0.285,-0.115
453.88,-0.3,-0.11
453.88,-0.31,-0.12
453.88,-0.305,-0.11
453.89,-0.285,-0.11
453.89,-0.285,-0.115
453.89,-0.28,-0.125
453.89,-0.295,-0.125
453.9,-0.305,-0.135
453.9,-0.315,-0.13
453.9,-0.31,-0.125
453.91,-0.32,-0.13
453.91,-0.32,-0.15
453.91,-0.315,-0.15
453.91,-0.33,-0.16
453.92,-0.315,-0.15
453.92,-0.315,-0.145
453.92,-0.3,-0.14
453.92,-0.29,-0.165
453.93,-0.295,-0.165
453.93,-0.295,-0.175
453.93,-0.3,-0.165
453.94,-0.295,-0.155
453.94,-0.305,-0.165
453.94,-0.31,-0.175
453.94,-0.305,-0.18
453.95,-0.32,-0.18
453.95,-0.315,-0.185
453.95,-0.31,-0.175
453.96,-0.3,-0.185
453.96,-0.305,-0.185
453.96,-0.315,-0.19
453.96,-0.32,-0.195
453.97,-0.33,-0.19
453.97,-0.325,-0.175
453.97,-0.315,-0.185
453.97,-0.305,-0.18
453.98,-0.31,-0.2
453.98,-0.315,-0.205
453.98,-0.305,-0.2
453.99,-0.29,-0.185
453.99,-0.275,-0.18
453.99,-0.285,-0.19
453.99,-0.29,-0.21
454,-0.315,-0.21
454,-0.31,-0.2
454,-0.31,-0.19
454.01,-0.3,-0.185
454.01,-0.305,-0.195
454.01,-0.315,-0.205
454.01,-0.315,-0.21
454.02,-0.3,-0.2
454.02,-0.285,-0.2
454.02,-0.285,-0.195
454.02,-0.28,-0.2
454.03,-0.28,-0.205
454.03,-0.305,-0.225
454.03,-0.295,-0.2
454.04,-0.29,-0.2
454.04,-0.28,-0.19
454.04,-0.28,-0.2
454.04,-0.29,-0.215
454.05,-0.305,-0.21
454.05,-0.31,-0.22
454.05,-0.29,-0.2
454.06,-0.285,-0.2
454.06,-0.29,-0.2
454.06,-0.305,-0.215
454.06,-0.305,-0.215
454.07,-0.295,-0.205
454.07,-0.29,-0.19
454.07,-0.275,-0.195
454.08,-0.265,-0.17
454.08,-0.24,-0.17
454.08,-0.265,-0.13
454.08,-0.25,-0.02
454.09,-0.235,0.26
454.09,-0.2,0.665
454.09,-0.155,0.915
454.09,-0.08,0.75
454.1,0.09,0.45
454.1,0.44,0.28
454.1,0.8,0.215
454.11,0.835,0.175
454.11,0.575,0.085
454.11,0.29,0.025
454.11,0.145,-0.05
454.12,0.13,-0.15
454.12,0.14,-0.28
454.12,0.15,-0.425
454.12,0.155,-0.605
454.13,0.15,-0.815
454.13,0.15,-1.055
454.13,0.165,-1.265
454.14,0.18,-1.415
454.14,0.185,-1.565
454.14,0.17,-1.715
454.14,0.145,-1.86
454.15,0.12,-2.025
454.15,0.11,-2.195
454.15,0.12,-2.385
454.16,0.115,-2.54
454.16,0.1,-2.67
454.16,0.065,-2.775
454.16,0.03,-2.855
454.17,0.01,-2.93
454.17,-0.005,-2.99
454.17,-0.045,-3.04
454.17,-0.125,-3.08
454.18,-0.19,-3.105
454.18,-0.26,-3.125
454.18,-0.315,-3.125
454.19,-0.395,-3.13
454.19,-0.465,-3.135
454.19,-0.555,-3.145
454.19,-0.61,-3.16
454.2,-0.615,-3.155
454.2,-0.575,-3.145
454.2,-0.535,-3.12
454.21,-0.49,-3.1
454.21,-0.475,-3.065
454.21,-0.48,-3.05
454.21,-0.495,-2.975
454.22,-0.49,-2.89
454.22,-0.485,-2.77
454.22,-0.49,-2.63
454.22,-0.465,-2.48
454.23,-0.455,-2.3
454.23,-0.42,-2.09
454.23,-0.375,-1.855
454.24,-0.35,-1.6
454.24,-0.325,-1.36
454.24,-0.325,-1.145
454.24,-0.335,-0.935
454.25,-0.335,-0.735
454.25,-0.33,-0.54
454.25,-0.325,-0.34
454.26,-0.33,-0.19
454.26,-0.34,-0.03
454.26,-0.365,0.115
454.26,-0.37,0.26
454.27,-0.36,0.385
454.27,-0.33,0.485
454.27,-0.31,0.545
454.27,-0.31,0.6
454.28,-0.305,0.64
454.28,-0.33,0.67
454.28,-0.325,0.715
454.29,-0.3,0.745
454.29,-0.285,0.785
454.29,-0.3,0.795
454.29,-0.305,0.83
454.3,-0.325,0.85
454.3,-0.315,0.88
454.3,-0.29,0.91
454.31,-0.285,0.925
454.31,-0.27,0.95
454.31,-0.29,0.97
454.31,-0.28,0.985
454.32,-0.275,1.01
454.32,-0.265,1.05
454.32,-0.265,1.06
454.33,-0.27,1.08
454.33,-0.28,1.09
454.33,-0.3,1.12
454.33,-0.28,1.14
454.34,-0.27,1.18
454.34,-0.265,1.21
454.34,-0.265,1.23
454.34,-0.295,1.26
454.35,-0.29,1.28
454.35,-0.29,1.31
454.35,-0.26,1.35
454.36,-0.255,1.39
454.36,-0.265,1.41
454.36,-0.26,1.42
454.36,-0.28,1.445
454.37,-0.285,1.49
454.37,-0.255,1.525
454.37,-0.235,1.555
454.38,-0.21,1.595
454.38,-0.205,1.61
454.38,-0.21,1.635
454.38,-0.22,1.68
454.39,-0.2,1.71
454.39,-0.21,1.725
454.39,-0.205,1.74
454.39,-0.205,1.755
454.4,-0.21,1.765
454.4,-0.215,1.79
454.4,-0.21,1.81
454.41,-0.2,1.8
454.41,-0.19,1.81
454.41,-0.17,1.79
454.41,-0.165,1.79
454.42,-0.13,1.785
454.42,-0.12,1.76
454.42,-0.085,1.74
454.42,-0.07,1.715
454.43,-0.075,1.66
454.43,-0.08,1.63
454.43,-0.08,1.585
454.44,-0.065,1.545
454.44,-0.045,1.5
454.44,-0.04,1.44
454.44,-0.035,1.375
454.45,-0.02,1.31
454.45,-0.015,1.255
454.45,0.02,1.2
454.46,0.015,1.13
454.46,-0.005,1.07
454.46,-0.02,1.01
454.46,-0.045,0.96
454.47,-0.045,0.9
454.47,-0.03,0.85
454.47,-0.015,0.8
454.47,-0.03,0.74
454.48,-0.05,0.675
454.48,-0.105,0.615
454.48,-0.11,0.57
454.49,-0.1,0.52
454.49,-0.09,0.475
454.49,-0.085,0.425
454.49,-0.105,0.36
454.5,-0.13,0.33
454.5,-0.125,0.28
454.5,-0.12,0.27
454.51,-0.11,0.23
454.51,-0.12,0.19
454.51,-0.135,0.15
454.51,-0.15,0.12
454.52,-0.155,0.115
454.52,-0.145,0.1
454.52,-0.14,0.08
454.52,-0.145,0.055
454.53,-0.165,0.02
454.53,-0.19,0.015
454.53,-0.2,-0.005
454.54,-0.215,-0.01
454.54,-0.2,-0.005
454.54,-0.21,-0.02
454.54,-0.21,-0.04
454.55,-0.225,-0.05
454.55,-0.235,-0.04
454.55,-0.235,-0.04
454.56,-0.215,-0.035
454.56,-0.215,-0.045
454.56,-0.21,-0.065
454.56,-0.21,-0.055
454.57,-0.215,-0.055
454.57,-0.205,-0.05
454.57,-0.205,-0.05
454.58,-0.215,-0.045
454.58,-0.23,-0.075
454.58,-0.245,-0.07
454.58,-0.225,-0.06
454.59,-0.195,-0.055
454.59,-0.195,-0.05
454.59,-0.215,-0.045
454.59,-0.23,-0.06
454.6,-0.23,-0.065
454.6,-0.225,-0.05
454.6,-0.22,-0.045
454.61,-0.205,-0.035
454.61,-0.225,-0.04
454.61,-0.225,-0.055
454.61,-0.23,-0.055
454.62,-0.225,-0.035
454.62,-0.22,-0.04
454.62,-0.21,-0.045
454.62,-0.21,-0.04
454.63,-0.215,-0.05
454.63,-0.24,-0.06
454.63,-0.245,-0.05
454.64,-0.225,-0.035
454.64,-0.225,-0.05
454.64,-0.23,-0.045
454.64,-0.235,-0.055
454.65,-0.245,-0.06
454.65,-0.24,-0.05
454.65,-0.215,-0.045
454.66,-0.21,-0.045
454.66,-0.225,-0.06
454.66,-0.23,-0.065
454.66,-0.255,-0.08
454.67,-0.26,-0.07
454.67,-0.24,-0.07
454.67,-0.23,-0.08
454.67,-0.23,-0.08
454.68,-0.235,-0.1
454.68,-0.255,-0.105
454.68,-0.26,-0.095
454.69,-0.26,-0.09
454.69,-0.245,-0.1
454.69,-0.245,-0.105
454.69,-0.265,-0.11
454.7,-0.26,-0.11
454.7,-0.26,-0.12
454.7,-0.26,-0.11
454.71,-0.255,-0.105
454.71,-0.26,-0.13
454.71,-0.285,-0.125
454.71,-0.28,-0.135
454.72,-0.275,-0.125
454.72,-0.27,-0.125
454.72,-0.26,-0.14
454.72,-0.255,-0.14
454.73,-0.275,-0.17
454.73,-0.27,-0.15
454.73,-0.275,-0.15
454.74,-0.275,-0.145
454.74,-0.27,-0.145
454.74,-0.26,-0.16
454.74,-0.27,-0.165
454.75,-0.285,-0.17
454.75,-0.285,-0.165
454.75,-0.275,-0.16
454.76,-0.275,-0.165
454.76,-0.28,-0.17
454.76,-0.285,-0.175
454.76,-0.29,-0.195
454.77,-0.285,-0.175
454.77,-0.285,-0.175
454.77,-0.265,-0.17
454.77,-0.275,-0.175
454.78,-0.265,-0.2
454.78,-0.29,-0.19
454.78,-0.285,-0.19
454.79,-0.27,-0.175
454.79,-0.27,-0.185
454.79,-0.27,-0.185
454.79,-0.285,-0.2
454.8,-0.29,-0.195
454.8,-0.29,-0.19
454.8,-0.28,-0.185
454.81,-0.275,-0.18
454.81,-0.285,-0.18
454.81,-0.29,-0.2
454.81,-0.29,-0.205
454.82,-0.285,-0.2
454.82,-0.275,-0.185
454.82,-0.27,-0.185
454.83,-0.27,-0.195
454.83,-0.27,-0.2
454.83,-0.285,-0.205
454.83,-0.29,-0.21
454.84,-0.28,-0.2
454.84,-0.28,-0.195
454.84,-0.28,-0.2
454.84,-0.285,-0.21
454.85,-0.29,-0.225
454.85,-0.295,-0.205
454.85,-0.27,-0.2
454.86,-0.28,-0.2
454.86,-0.28,-0.215
454.86,-0.285,-0.22
454.86,-0.295,-0.215
454.87,-0.295,-0.225
454.87,-0.28,-0.21
454.87,-0.275,-0.2
454.88,-0.275,-0.215
454.88,-0.275,-0.22
454.88,-0.295,-0.225
454.88,-0.29,-0.22
454.89,-0.29,-0.205
454.89,-0.275,-0.205
454.89,-0.27,-0.215
454.89,-0.285,-0.215
454.9,-0.28,-0.22
454.9,-0.275,-0.205
454.9,-0.265,-0.18
454.91,-0.265,-0.175
454.91,-0.265,-0.15
454.91,-0.265,-0.11
454.91,-0.26,0.045
454.92,-0.225,0.395
454.92,-0.18,0.805
454.92,-0.12,0.91
454.92,-0.02,0.665
454.93,0.24,0.385
454.93,0.61,0.255
454.93,0.87,0.22
454.94,0.73,0.185
454.94,0.405,0.16
454.94,0.16,0.11
454.94,0.105,0.065
454.95,0.12,0
454.95,0.15,-0.09
454.95,0.17,-0.2
454.96,0.185,-0.375
454.96,0.195,-0.58
454.96,0.205,-0.805
454.96,0.22,-1.035
454.97,0.21,-1.265
454.97,0.22,-1.51
454.97,0.215,-1.77
454.97,0.195,-1.99
454.98,0.17,-2.18
454.98,0.18,-2.37
454.98,0.175,-2.51
454.99,0.175,-2.6
454.99,0.165,-2.69
454.99,0.135,-2.805
454.99,0.11,-2.915
455,0.06,-3
455,-0.005,-3.045
455,-0.06,-3.065
455.01,-0.12,-3.09
455.01,-0.16,-3.1
455.01,-0.225,-3.125
455.01,-0.32,-3.155
455.02,-0.405,-3.155
455.02,-0.475,-3.135
455.02,-0.505,-3.145
455.02,-0.51,-3.145
455.03,-0.485,-3.15
455.03,-0.465,-3.14
455.03,-0.45,-3.115
455.04,-0.45,-3.095
455.04,-0.46,-3.05
455.04,-0.485,-3
455.04,-0.495,-2.935
455.05,-0.515,-2.825
455.05,-0.51,-2.695
455.05,-0.485,-2.535
455.06,-0.45,-2.36
455.06,-0.445,-2.17
455.06,-0.435,-1.96
455.06,-0.43,-1.73
455.07,-0.42,-1.475
455.07,-0.415,-1.26
455.07,-0.395,-1.065
455.08,-0.405,-0.845
455.08,-0.42,-0.64
455.08,-0.425,-0.455
455.08,-0.435,-0.285
455.09,-0.44,-0.13
455.09,-0.435,0.015
455.09,-0.44,0.165
455.09,-0.445,0.275
455.1,-0.435,0.4
455.1,-0.42,0.49
455.1,-0.415,0.575
455.11,-0.4,0.6
455.11,-0.39,0.65
455.11,-0.41,0.665
455.11,-0.405,0.705
455.12,-0.395,0.74
455.12,-0.38,0.78
455.12,-0.37,0.795
455.12,-0.38,0.825
455.13,-0.39,0.835
455.13,-0.39,0.865
455.13,-0.39,0.89
455.14,-0.385,0.925
455.14,-0.365,0.945
455.14,-0.38,0.975
455.14,-0.39,0.985
455.15,-0.41,1.005
455.15,-0.405,1.04
455.15,-0.39,1.08
455.16,-0.38,1.08
455.16,-0.39,1.105
455.16,-0.405,1.135
455.16,-0.41,1.145
455.17,-0.4,1.185
455.17,-0.395,1.22
455.17,-0.385,1.245
455.17,-0.395,1.27
455.18,-0.4,1.3
455.18,-0.415,1.315
455.18,-0.41,1.36
455.19,-0.39,1.39
455.19,-0.38,1.425
455.19,-0.39,1.455
455.19,-0.39,1.48
455.2,-0.39,1.5
455.2,-0.385,1.53
455.2,-0.385,1.575
455.21,-0.37,1.6
455.21,-0.36,1.62
455.21,-0.37,1.635
455.21,-0.365,1.665
455.22,-0.355,1.69
455.22,-0.33,1.72
455.22,-0.32,1.74
455.22,-0.325,1.75
455.23,-0.32,1.745
455.23,-0.33,1.755
455.23,-0.32,1.765
455.24,-0.29,1.785
455.24,-0.275,1.765
455.24,-0.265,1.775
455.24,-0.27,1.755
455.25,-0.27,1.745
455.25,-0.255,1.74
455.25,-0.235,1.725
455.26,-0.215,1.705
455.26,-0.21,1.68
455.26,-0.22,1.625
455.26,-0.215,1.57
455.27,-0.19,1.53
455.27,-0.175,1.5
455.27,-0.16,1.455
455.27,-0.145,1.39
455.28,-0.15,1.335
455.28,-0.155,1.275
455.28,-0.155,1.21
455.29,-0.12,1.16
455.29,-0.115,1.11
455.29,-0.115,1.045
455.29,-0.1,0.975
455.3,-0.11,0.9
455.3,-0.11,0.85
455.3,-0.1,0.8
455.31,-0.095,0.735
455.31,-0.09,0.68
455.31,-0.11,0.625
455.31,-0.115,0.545
455.32,-0.12,0.51
455.32,-0.105,0.46
455.32,-0.105,0.42
455.33,-0.11,0.365
455.33,-0.125,0.32
455.33,-0.145,0.27
455.33,-0.145,0.245
455.34,-0.14,0.23
455.34,-0.135,0.205
455.34,-0.145,0.165
455.34,-0.14,0.145
455.35,-0.17,0.12
455.35,-0.175,0.115
455.35,-0.17,0.115
455.36,-0.17,0.11
455.36,-0.17,0.09
455.36,-0.195,0.06
455.36,-0.2,0.05
455.37,-0.195,0.045
455.37,-0.185,0.04
455.37,-0.17,0.025
455.38,-0.18,0
455.38,-0.185,-0.02
455.38,-0.195,-0.03
455.38,-0.19,-0.02
455.39,-0.18,-0.01
455.39,-0.155,-0.03
455.39,-0.165,-0.04
455.39,-0.185,-0.065
455.4,-0.21,-0.085
455.4,-0.2,-0.07
455.4,-0.195,-0.07
455.41,-0.19,-0.075
455.41,-0.2,-0.08
455.41,-0.2,-0.1
455.41,-0.2,-0.1
455.42,-0.21,-0.09
455.42,-0.2,-0.085
455.42,-0.185,-0.07
455.42,-0.195,-0.065
455.43,-0.21,-0.07
455.43,-0.245,-0.07
455.43,-0.24,-0.065
455.44,-0.245,-0.06
455.44,-0.23,-0.065
455.44,-0.245,-0.065
455.44,-0.25,-0.075
455.45,-0.25,-0.08
455.45,-0.255,-0.055
455.45,-0.255,-0.045
455.46,-0.25,-0.05
455.46,-0.25,-0.055
455.46,-0.265,-0.06
455.46,-0.27,-0.06
455.47,-0.265,-0.065
455.47,-0.26,-0.045
455.47,-0.26,-0.06
455.47,-0.26,-0.065
455.48,-0.27,-0.07
455.48,-0.28,-0.08
455.48,-0.28,-0.075
455.49,-0.265,-0.065
455.49,-0.265,-0.07
455.49,-0.27,-0.085
455.49,-0.28,-0.085
455.5,-0.29,-0.1
455.5,-0.285,-0.095
455.5,-0.275,-0.09
455.51,-0.28,-0.11
455.51,-0.27,-0.1
455.51,-0.295,-0.115
455.51,-0.295,-0.12
455.52,-0.295,-0.12
455.52,-0.295,-0.11
455.52,-0.28,-0.11
455.52,-0.29,-0.13
455.53,-0.295,-0.14
455.53,-0.305,-0.14
455.53,-0.315,-0.15
455.54,-0.3,-0.13
455.54,-0.29,-0.145
455.54,-0.29,-0.16
455.54,-0.305,-0.165
455.55,-0.31,-0.165
455.55,-0.305,-0.17
455.55,-0.305,-0.15
455.56,-0.29,-0.16
455.56,-0.295,-0.17
455.56,-0.31,-0.175
455.56,-0.315,-0.185
455.57,-0.315,-0.175
455.57,-0.31,-0.18
455.57,-0.3,-0.175
455.58,-0.31,-0.18
455.58,-0.3,-0.195
455.58,-0.32,-0.19
455.58,-0.305,-0.185
455.59,-0.305,-0.18
455.59,-0.3,-0.18
455.59,-0.3,-0.195
455.59,-0.305,-0.2
455.6,-0.32,-0.2
455.6,-0.32,-0.2
455.6,-0.305,-0.19
455.61,-0.305,-0.195
455.61,-0.3,-0.195
455.61,-0.325,-0.205
455.61,-0.32,-0.215
455.62,-0.315,-0.19
455.62,-0.315,-0.185
455.62,-0.295,-0.18
455.62,-0.3,-0.195
455.63,-0.3,-0.21
455.63,-0.335,-0.21
455.63,-0.325,-0.195
455.64,-0.305,-0.19
455.64,-0.305,-0.19
455.64,-0.295,-0.195
455.64,-0.31,-0.2
455.65,-0.32,-0.215
455.65,-0.315,-0.2
455.65,-0.305,-0.18
455.66,-0.305,-0.2
455.66,-0.3,-0.19
455.66,-0.305,-0.205
455.66,-0.315,-0.205
455.67,-0.31,-0.19
455.67,-0.305,-0.19
455.67,-0.31,-0.195
455.67,-0.295,-0.195
455.68,-0.315,-0.195
455.68,-0.325,-0.205
455.68,-0.315,-0.19
455.69,-0.305,-0.19
455.69,-0.305,-0.19
455.69,-0.305,-0.2
455.69,-0.31,-0.205
455.7,-0.31,-0.21
455.7,-0.31,-0.195
455.7,-0.295,-0.195
455.71,-0.285,-0.185
455.71,-0.295,-0.2
455.71,-0.31,-0.21
455.71,-0.305,-0.21
455.72,-0.305,-0.2
455.72,-0.305,-0.2
455.72,-0.3,-0.195
455.72,-0.295,-0.205
455.73,-0.29,-0.22
455.73,-0.305,-0.21
455.73,-0.29,-0.195
455.74,-0.275,-0.195
455.74,-0.255,-0.185
455.74,-0.26,-0.17
455.74,-0.265,-0.16
455.75,-0.27,-0.095
455.75,-0.255,0.03
455.75,-0.21,0.315
455.76,-0.195,0.68
455.76,-0.135,0.84
455.76,-0.055,0.645
455.76,0.185,0.38
455.77,0.565,0.25
455.77,0.85,0.22
455.77,0.805,0.195
455.77,0.51,0.145
455.78,0.245,0.09
455.78,0.15,0.055
455.78,0.145,-0.005
455.79,0.175,-0.07
455.79,0.195,-0.19
455.79,0.195,-0.375
455.79,0.205,-0.57
455.8,0.205,-0.815
455.8,0.225,-1.045
455.8,0.22,-1.245
455.81,0.23,-1.495
455.81,0.225,-1.735
455.81,0.215,-1.955
455.81,0.195,-2.13
455.82,0.19,-2.275
455.82,0.21,-2.4
455.82,0.215,-2.51
455.83,0.22,-2.585
455.83,0.21,-2.665
455.83,0.2,-2.74
455.83,0.19,-2.835
455.84,0.18,-2.9
455.84,0.16,-2.97
455.84,0.095,-2.99
455.84,0.04,-3.02
455.85,-0.01,-3.045
455.85,-0.05,-3.065
455.85,-0.095,-3.075
455.86,-0.18,-3.095
455.86,-0.245,-3.09
455.86,-0.3,-3.105
455.86,-0.32,-3.105
455.87,-0.285,-3.095
455.87,-0.25,-3.09
455.87,-0.215,-3.08
455.88,-0.225,-3.055
455.88,-0.245,-3.045
455.88,-0.285,-3
455.88,-0.305,-2.92
455.89,-0.32,-2.83
455.89,-0.33,-2.73
455.89,-0.355,-2.61
455.89,-0.36,-2.505
455.9,-0.37,-2.345
455.9,-0.36,-2.16
455.9,-0.36,-1.945
455.91,-0.36,-1.73
455.91,-0.38,-1.53
455.91,-0.385,-1.33
455.91,-0.39,-1.12
455.92,-0.38,-0.91
455.92,-0.375,-0.71
455.92,-0.365,-0.52
455.92,-0.39,-0.345
455.93,-0.405,-0.21
455.93,-0.42,-0.065
455.93,-0.42,0.07
455.94,-0.43,0.215
455.94,-0.415,0.335
455.94,-0.415,0.445
455.94,-0.395,0.525
455.95,-0.41,0.585
455.95,-0.41,0.645
455.95,-0.4,0.695
455.96,-0.395,0.725
455.96,-0.385,0.755
455.96,-0.385,0.78
455.96,-0.395,0.82
455.97,-0.395,0.88
455.97,-0.38,0.91
455.97,-0.375,0.945
455.97,-0.375,0.965
455.98,-0.38,0.97
455.98,-0.395,1.01
455.98,-0.395,1.045
455.99,-0.385,1.085
455.99,-0.375,1.11
455.99,-0.385,1.13
455.99,-0.395,1.16
456,-0.4,1.185
456,-0.41,1.23
456,-0.395,1.265
456.01,-0.395,1.3
456.01,-0.385,1.335
456.01,-0.39,1.35
456.01,-0.405,1.39
456.02,-0.395,1.445
456.02,-0.39,1.49
456.02,-0.385,1.515
456.02,-0.38,1.555
456.03,-0.39,1.58
456.03,-0.4,1.605
456.03,-0.38,1.665
456.04,-0.385,1.71
456.04,-0.37,1.73
456.04,-0.37,1.74
456.04,-0.385,1.775
456.05,-0.37,1.795
456.05,-0.37,1.825
456.05,-0.35,1.86
456.06,-0.335,1.88
456.06,-0.325,1.88
456.06,-0.325,1.89
456.06,-0.34,1.895
456.07,-0.315,1.91
456.07,-0.305,1.94
456.07,-0.29,1.925
456.08,-0.29,1.93
456.08,-0.28,1.91
456.08,-0.285,1.895
456.08,-0.27,1.88
456.09,-0.255,1.875
456.09,-0.23,1.86
456.09,-0.245,1.82
456.09,-0.235,1.775
456.1,-0.235,1.74
456.1,-0.22,1.71
456.1,-0.21,1.68
456.11,-0.2,1.64
456.11,-0.19,1.57
456.11,-0.185,1.515
456.11,-0.195,1.46
456.12,-0.18,1.41
456.12,-0.16,1.36
456.12,-0.155,1.295
456.12,-0.15,1.22
456.13,-0.155,1.15
456.13,-0.165,1.09
456.13,-0.155,1.02
456.14,-0.135,0.965
456.14,-0.125,0.905
456.14,-0.135,0.84
456.14,-0.135,0.77
456.15,-0.14,0.7
456.15,-0.14,0.66
456.15,-0.135,0.605
456.16,-0.135,0.555
456.16,-0.14,0.5
456.16,-0.16,0.445
456.16,-0.17,0.405
456.17,-0.16,0.365
456.17,-0.155,0.335
456.17,-0.16,0.29
456.17,-0.155,0.255
456.18,-0.175,0.215
456.18,-0.19,0.185
456.18,-0.19,0.16
456.19,-0.19,0.155
456.19,-0.18,0.125
456.19,-0.195,0.095
456.19,-0.2,0.085
456.2,-0.205,0.055
456.2,-0.215,0.04
456.2,-0.205,0.035
456.21,-0.2,0.025
456.21,-0.2,0.005
456.21,-0.205,-0.015
456.21,-0.22,-0.02
456.22,-0.21,-0.035
456.22,-0.2,-0.025
456.22,-0.2,-0.04
456.22,-0.185,-0.04
456.23,-0.19,-0.055
456.23,-0.205,-0.07
456.23,-0.21,-0.06
456.24,-0.2,-0.065
456.24,-0.2,-0.055
456.24,-0.205,-0.06
456.24,-0.21,-0.075
456.25,-0.22,-0.07
456.25,-0.23,-0.07
456.25,-0.215,-0.06
456.26,-0.21,-0.075
456.26,-0.21,-0.07
456.26,-0.225,-0.085
456.26,-0.24,-0.075
456.27,-0.225,-0.085
456.27,-0.215,-0.065
456.27,-0.21,-0.075
456.27,-0.215,-0.09
456.28,-0.22,-0.08
456.28,-0.245,-0.09
456.28,-0.24,-0.075
456.29,-0.23,-0.075
456.29,-0.225,-0.06
456.29,-0.235,-0.07
456.29,-0.235,-0.085
456.3,-0.245,-0.09
456.3,-0.235,-0.08
456.3,-0.23,-0.07
456.31,-0.22,-0.075
456.31,-0.23,-0.075
456.31,-0.235,-0.08
456.31,-0.245,-0.085
456.32,-0.255,-0.075
456.32,-0.24,-0.055
456.32,-0.23,-0.055
456.33,-0.23,-0.06
456.33,-0.245,-0.07
456.33,-0.26,-0.065
456.33,-0.265,-0.06
456.34,-0.26,-0.045
456.34,-0.265,-0.055
456.34,-0.26,-0.06
456.34,-0.265,-0.055
456.35,-0.28,-0.05
456.35,-0.265,-0.055
456.35,-0.265,-0.04
456.36,-0.265,-0.055
456.36,-0.265,-0.06
456.36,-0.27,-0.075
456.36,-0.265,-0.09
456.37,-0.255,-0.095
456.37,-0.24,-0.085
456.37,-0.225,-0.105
456.38,-0.225,-0.135
456.38,-0.245,-0.145
456.38,-0.245,-0.165
456.38,-0.23,-0.155
456.39,-0.215,-0.16
456.39,-0.21,-0.165
456.39,-0.21,-0.19
456.39,-0.22,-0.205
456.4,-0.24,-0.22
456.4,-0.245,-0.225
456.4,-0.235,-0.215
456.41,-0.24,-0.215
456.41,-0.24,-0.22
456.41,-0.23,-0.215
456.41,-0.255,-0.215
456.42,-0.255,-0.195
456.42,-0.25,-0.205
456.42,-0.255,-0.2
456.42,-0.265,-0.21
456.43,-0.28,-0.225
456.43,-0.305,-0.215
456.43,-0.295,-0.21
456.44,-0.29,-0.21
456.44,-0.28,-0.205
456.44,-0.29,-0.215
456.44,-0.285,-0.23
456.45,-0.31,-0.225
456.45,-0.3,-0.21
456.45,-0.285,-0.21
456.46,-0.265,-0.205
456.46,-0.265,-0.205
456.46,-0.275,-0.23
456.46,-0.29,-0.23
456.47,-0.31,-0.225
456.47,-0.29,-0.22
456.47,-0.295,-0.225
456.47,-0.3,-0.215
456.48,-0.32,-0.235
456.48,-0.33,-0.235
456.48,-0.31,-0.235
456.49,-0.29,-0.235
456.49,-0.29,-0.23
456.49,-0.3,-0.24
456.49,-0.295,-0.24
456.5,-0.305,-0.235
456.5,-0.295,-0.23
456.5,-0.29,-0.225
456.51,-0.29,-0.23
456.51,-0.285,-0.225
456.51,-0.305,-0.255
456.51,-0.305,-0.24
456.52,-0.29,-0.24
456.52,-0.265,-0.225
456.52,-0.255,-0.23
456.52,-0.255,-0.23
456.53,-0.265,-0.23
456.53,-0.28,-0.24
456.53,-0.295,-0.22
456.54,-0.28,-0.21
456.54,-0.275,-0.205
456.54,-0.275,-0.215
456.54,-0.275,-0.225
456.55,-0.285,-0.215
456.55,-0.265,-0.2
456.55,-0.255,-0.18
456.56,-0.245,-0.16
456.56,-0.23,-0.105
456.56,-0.24,0.03
456.56,-0.225,0.385
456.57,-0.185,0.75
456.57,-0.105,0.8
456.57,0,0.53
456.58,0.255,0.29
456.58,0.605,0.18
456.58,0.75,0.15
456.58,0.575,0.125
456.59,0.285,0.11
456.59,0.13,0.085
456.59,0.125,0.035
456.59,0.15,-0.03
456.6,0.155,-0.12
456.6,0.19,-0.25
456.6,0.22,-0.415
456.61,0.235,-0.645
456.61,0.25,-0.905
456.61,0.26,-1.17
456.61,0.25,-1.42
456.62,0.26,-1.675
456.62,0.265,-1.905
456.62,0.245,-2.13
456.62,0.24,-2.295
456.63,0.255,-2.44
456.63,0.26,-2.555
456.63,0.265,-2.625
456.64,0.26,-2.685
456.64,0.26,-2.76
456.64,0.255,-2.85
456.64,0.235,-2.94
456.65,0.195,-3.01
456.65,0.135,-3.03
456.65,0.07,-3.045
456.66,0.035,-3.055
456.66,-0.015,-3.095
456.66,-0.1,-3.105
456.66,-0.215,-3.11
456.67,-0.305,-3.125
456.67,-0.36,-3.105
456.67,-0.35,-3.11
456.67,-0.325,-3.105
456.68,-0.305,-3.11
456.68,-0.315,-3.095
456.68,-0.34,-3.055
456.69,-0.345,-3
456.69,-0.37,-2.92
456.69,-0.395,-2.83
456.69,-0.415,-2.735
456.7,-0.435,-2.595
456.7,-0.415,-2.435
456.7,-0.4,-2.295
456.71,-0.39,-2.13
456.71,-0.38,-1.94
456.71,-0.395,-1.745
456.71,-0.395,-1.53
456.72,-0.4,-1.32
456.72,-0.385,-1.11
456.72,-0.365,-0.925
456.72,-0.355,-0.74
456.73,-0.36,-0.55
456.73,-0.375,-0.375
456.73,-0.385,-0.21
456.74,-0.39,-0.065
456.74,-0.4,0.055
456.74,-0.415,0.17
456.74,-0.425,0.285
456.75,-0.42,0.4
456.75,-0.42,0.5
456.75,-0.415,0.57
456.76,-0.405,0.62
456.76,-0.4,0.665
456.76,-0.395,0.7
456.76,-0.39,0.74
456.77,-0.375,0.785
456.77,-0.36,0.82
456.77,-0.355,0.86
456.77,-0.35,0.885
456.78,-0.375,0.905
456.78,-0.365,0.94
456.78,-0.375,0.98
456.79,-0.37,1.025
456.79,-0.36,1.05
456.79,-0.355,1.085
456.79,-0.37,1.105
456.8,-0.37,1.135
456.8,-0.365,1.185
456.8,-0.355,1.22
456.81,-0.355,1.26
456.81,-0.365,1.285
456.81,-0.375,1.31
456.81,-0.385,1.35
456.82,-0.385,1.395
456.82,-0.355,1.455
456.82,-0.345,1.49
456.83,-0.345,1.505
456.83,-0.36,1.555
456.83,-0.375,1.585
456.83,-0.38,1.635
456.84,-0.37,1.675
456.84,-0.35,1.71
456.84,-0.33,1.73
456.84,-0.315,1.76
456.85,-0.32,1.785
456.85,-0.31,1.81
456.85,-0.295,1.84
456.86,-0.31,1.87
456.86,-0.315,1.865
456.86,-0.305,1.89
456.86,-0.3,1.895
456.87,-0.295,1.91
456.87,-0.28,1.92
456.87,-0.27,1.915
456.88,-0.255,1.905
456.88,-0.245,1.885
456.88,-0.225,1.855
456.88,-0.215,1.855
456.89,-0.2,1.83
456.89,-0.195,1.8
456.89,-0.2,1.755
456.89,-0.195,1.71
456.9,-0.21,1.67
456.9,-0.19,1.62
456.9,-0.18,1.585
456.91,-0.16,1.53
456.91,-0.15,1.46
456.91,-0.17,1.395
456.91,-0.155,1.345
456.92,-0.15,1.28
456.92,-0.14,1.245
456.92,-0.14,1.17
456.92,-0.135,1.1
456.93,-0.14,1.03
456.93,-0.13,0.955
456.93,-0.11,0.895
456.94,-0.1,0.845
456.94,-0.1,0.78
456.94,-0.11,0.715
456.94,-0.14,0.66
456.95,-0.155,0.605
456.95,-0.15,0.565
456.95,-0.125,0.51
456.96,-0.13,0.46
456.96,-0.12,0.405
456.96,-0.13,0.355
456.96,-0.15,0.325
456.97,-0.155,0.3
456.97,-0.155,0.275
456.97,-0.175,0.235
456.97,-0.18,0.21
456.98,-0.185,0.155
456.98,-0.17,0.13
456.98,-0.155,0.115
456.99,-0.165,0.11
456.99,-0.165,0.085
456.99,-0.195,0.06
456.99,-0.205,0.04
457,-0.205,0.02
457,-0.18,0.015
457,-0.16,0.01
457.01,-0.165,0.005
457.01,-0.175,-0.005
457.01,-0.195,-0.035
457.01,-0.225,-0.03
457.02,-0.22,-0.05
457.02,-0.185,-0.04
457.02,-0.15,-0.06
457.02,-0.17,-0.06
457.03,-0.19,-0.08
457.03,-0.21,-0.09
457.03,-0.21,-0.085
457.04,-0.205,-0.085
457.04,-0.19,-0.075
457.04,-0.205,-0.08
457.04,-0.215,-0.1
457.05,-0.21,-0.105
457.05,-0.205,-0.095
457.05,-0.2,-0.085
457.06,-0.17,-0.1
457.06,-0.175,-0.1
457.06,-0.185,-0.115
457.06,-0.17,-0.115
457.07,-0.185,-0.11
457.07,-0.185,-0.095
457.07,-0.185,-0.1
457.08,-0.195,-0.1
457.08,-0.2,-0.11
457.08,-0.19,-0.11
457.08,-0.19,-0.09
457.09,-0.185,-0.085
457.09,-0.185,-0.1
457.09,-0.19,-0.095
