250.5,-0.365,-0.17
250.5,-0.36,-0.17
250.51,-0.34,-0.17
250.51,-0.325,-0.175
250.51,-0.325,-0.16
250.51,-0.34,-0.175
250.52,-0.35,-0.18
250.52,-0.35,-0.17
250.52,-0.33,-0.16
250.52,-0.35,-0.155
250.53,-0.34,-0.165
250.53,-0.34,-0.18
250.53,-0.345,-0.185
250.54,-0.355,-0.185
250.54,-0.335,-0.18
250.54,-0.335,-0.17
250.54,-0.33,-0.175
250.55,-0.34,-0.18
250.55,-0.34,-0.18
250.55,-0.345,-0.18
250.56,-0.335,-0.17
250.56,-0.33,-0.165
250.56,-0.32,-0.175
250.56,-0.34,-0.185
250.57,-0.34,-0.185
250.57,-0.345,-0.18
250.57,-0.345,-0.18
250.57,-0.335,-0.16
250.58,-0.325,-0.17
250.58,-0.335,-0.18
250.58,-0.34,-0.18
250.59,-0.34,-0.185
250.59,-0.33,-0.17
250.59,-0.315,-0.17
250.59,-0.315,-0.18
250.6,-0.34,-0.175
250.6,-0.335,-0.18
250.6,-0.335,-0.175
250.61,-0.325,-0.165
250.61,-0.315,-0.155
250.61,-0.31,-0.145
250.61,-0.32,-0.15
250.62,-0.32,-0.145
250.62,-0.315,-0.09
250.62,-0.29,0.01
250.62,-0.27,0.245
250.63,-0.245,0.605
250.63,-0.23,0.865
250.63,-0.2,0.835
250.64,-0.14,0.6
250.64,0.015,0.4
250.64,0.335,0.305
250.64,0.695,0.26
250.65,0.8,0.21
250.65,0.59,0.155
250.65,0.26,0.125
250.66,0.1,0.095
250.66,0.08,0.035
250.66,0.115,-0.07
250.66,0.135,-0.24
250.67,0.13,-0.45
250.67,0.125,-0.67
250.67,0.145,-0.9
250.67,0.17,-1.16
250.68,0.185,-1.45
250.68,0.19,-1.73
250.68,0.175,-1.95
250.69,0.17,-2.14
250.69,0.17,-2.3
250.69,0.18,-2.435
250.69,0.18,-2.515
250.7,0.175,-2.615
250.7,0.145,-2.72
250.7,0.13,-2.83
250.71,0.125,-2.905
250.71,0.1,-2.955
250.71,0.055,-2.99
250.71,-0.02,-3.03
250.72,-0.09,-3.06
250.72,-0.135,-3.075
250.72,-0.18,-3.08
250.73,-0.225,-3.08
250.73,-0.315,-3.095
250.73,-0.4,-3.095
250.73,-0.43,-3.1
250.74,-0.42,-3.095
250.74,-0.385,-3.085
250.74,-0.36,-3.065
250.74,-0.35,-3.06
250.75,-0.36,-3.05
250.75,-0.385,-3.02
250.75,-0.4,-2.97
250.76,-0.405,-2.87
250.76,-0.415,-2.765
250.76,-0.43,-2.62
250.76,-0.435,-2.505
250.77,-0.435,-2.34
250.77,-0.435,-2.125
250.77,-0.415,-1.885
250.77,-0.405,-1.645
250.78,-0.4,-1.425
250.78,-0.41,-1.21
250.78,-0.415,-0.985
250.79,-0.415,-0.745
250.79,-0.4,-0.52
250.79,-0.41,-0.325
250.79,-0.415,-0.15
250.8,-0.435,0.005
250.8,-0.455,0.155
250.8,-0.475,0.31
250.81,-0.47,0.445
250.81,-0.45,0.555
250.81,-0.445,0.635
250.81,-0.455,0.67
250.82,-0.47,0.72
250.82,-0.48,0.76
250.82,-0.47,0.805
250.82,-0.46,0.845
250.83,-0.46,0.86
250.83,-0.46,0.88
250.83,-0.475,0.91
250.84,-0.485,0.93
250.84,-0.475,0.985
250.84,-0.47,1.005
250.84,-0.48,1.035
250.85,-0.485,1.05
250.85,-0.485,1.08
250.85,-0.49,1.125
250.86,-0.49,1.15
250.86,-0.48,1.185
250.86,-0.49,1.215
250.86,-0.485,1.245
250.87,-0.49,1.275
250.87,-0.495,1.31
250.87,-0.48,1.355
250.88,-0.465,1.4
250.88,-0.475,1.425
250.88,-0.475,1.45
250.88,-0.48,1.485
250.89,-0.475,1.515
250.89,-0.475,1.55
250.89,-0.46,1.595
250.89,-0.465,1.625
250.9,-0.465,1.645
250.9,-0.48,1.675
250.9,-0.485,1.715
250.91,-0.47,1.755
250.91,-0.455,1.785
250.91,-0.445,1.815
250.91,-0.445,1.84
250.92,-0.435,1.855
250.92,-0.435,1.875
250.92,-0.42,1.91
250.92,-0.405,1.935
250.93,-0.395,1.955
250.93,-0.38,1.955
250.93,-0.375,1.965
250.94,-0.355,1.975
250.94,-0.33,1.985
250.94,-0.32,1.985
250.94,-0.305,1.98
250.95,-0.32,1.955
250.95,-0.315,1.93
250.95,-0.31,1.92
250.96,-0.29,1.905
250.96,-0.28,1.88
250.96,-0.26,1.84
250.96,-0.265,1.795
250.97,-0.25,1.735
250.97,-0.25,1.705
250.97,-0.225,1.65
250.98,-0.215,1.6
250.98,-0.205,1.535
250.98,-0.19,1.47
250.98,-0.19,1.4
250.99,-0.19,1.325
250.99,-0.175,1.26
250.99,-0.16,1.195
250.99,-0.165,1.125
251,-0.17,1.05
251,-0.18,0.965
251,-0.175,0.92
251.01,-0.165,0.87
251.01,-0.15,0.805
251.01,-0.15,0.74
251.01,-0.15,0.675
251.02,-0.15,0.62
251.02,-0.17,0.565
251.02,-0.17,0.525
251.02,-0.165,0.475
251.03,-0.17,0.445
251.03,-0.17,0.39
251.03,-0.185,0.34
251.04,-0.2,0.31
251.04,-0.195,0.29
251.04,-0.2,0.26
251.04,-0.2,0.24
251.05,-0.215,0.195
251.05,-0.24,0.175
251.05,-0.235,0.155
251.06,-0.235,0.15
251.06,-0.235,0.135
251.06,-0.24,0.125
251.06,-0.255,0.105
251.07,-0.26,0.075
251.07,-0.26,0.065
251.07,-0.24,0.07
251.07,-0.235,0.065
251.08,-0.235,0.055
251.08,-0.25,0.045
251.08,-0.26,0.045
251.09,-0.275,0.03
251.09,-0.26,0.03
251.09,-0.265,0.035
251.09,-0.27,0.03
251.1,-0.29,0.015
251.1,-0.295,0.015
251.1,-0.29,0.025
251.11,-0.275,0.03
251.11,-0.27,0.03
251.11,-0.265,0.025
251.11,-0.285,0.015
251.12,-0.285,0.01
251.12,-0.285,0.02
251.12,-0.27,0.02
251.12,-0.26,0.025
251.13,-0.265,0.02
251.13,-0.28,0.01
251.13,-0.29,0
251.14,-0.29,0.015
251.14,-0.285,0
251.14,-0.28,0.015
251.14,-0.285,0.005
251.15,-0.295,0
251.15,-0.295,-0.01
251.15,-0.3,-0.01
251.16,-0.285,0.015
251.16,-0.275,0.015
251.16,-0.27,0.01
251.16,-0.285,-0.005
251.17,-0.28,-0.005
251.17,-0.29,0
251.17,-0.28,0
251.17,-0.29,-0.005
251.18,-0.3,-0.005
251.18,-0.31,-0.015
251.18,-0.32,-0.025
251.19,-0.315,-0.015
251.19,-0.31,-0.02
251.19,-0.3,-0.01
251.19,-0.29,-0.02
251.2,-0.295,-0.03
251.2,-0.3,-0.035
251.2,-0.305,-0.03
251.21,-0.305,-0.035
251.21,-0.3,-0.025
251.21,-0.3,-0.05
251.21,-0.315,-0.06
251.22,-0.315,-0.065
251.22,-0.31,-0.07
251.22,-0.305,-0.065
251.23,-0.29,-0.055
251.23,-0.295,-0.065
251.23,-0.31,-0.075
251.23,-0.32,-0.085
251.24,-0.32,-0.09
251.24,-0.315,-0.085
251.24,-0.305,-0.095
251.24,-0.305,-0.08
251.25,-0.31,-0.105
251.25,-0.315,-0.125
251.25,-0.325,-0.115
251.26,-0.325,-0.105
251.26,-0.31,-0.11
251.26,-0.325,-0.115
251.26,-0.335,-0.13
251.27,-0.34,-0.145
251.27,-0.335,-0.135
251.27,-0.32,-0.12
251.27,-0.305,-0.135
251.28,-0.31,-0.12
251.28,-0.305,-0.15
251.28,-0.33,-0.15
251.29,-0.335,-0.145
251.29,-0.315,-0.135
251.29,-0.315,-0.14
251.29,-0.325,-0.14
251.3,-0.325,-0.15
251.3,-0.335,-0.15
251.3,-0.35,-0.15
251.31,-0.32,-0.155
251.31,-0.3,-0.15
251.31,-0.31,-0.135
251.31,-0.3,-0.165
251.32,-0.33,-0.16
251.32,-0.315,-0.155
251.32,-0.325,-0.155
251.32,-0.31,-0.15
251.33,-0.31,-0.16
251.33,-0.325,-0.15
251.33,-0.335,-0.185
251.34,-0.34,-0.17
251.34,-0.33,-0.16
251.34,-0.325,-0.16
251.34,-0.345,-0.16
251.35,-0.36,-0.165
251.35,-0.36,-0.17
251.35,-0.355,-0.17
251.36,-0.33,-0.17
251.36,-0.31,-0.16
251.36,-0.31,-0.165
251.36,-0.3,-0.17
251.37,-0.3,-0.185
251.37,-0.31,-0.18
251.37,-0.325,-0.17
251.38,-0.3,-0.16
251.38,-0.32,-0.175
251.38,-0.315,-0.185
251.38,-0.31,-0.195
251.39,-0.31,-0.185
251.39,-0.3,-0.175
251.39,-0.3,-0.17
251.39,-0.31,-0.18
251.4,-0.315,-0.18
251.4,-0.335,-0.19
251.4,-0.335,-0.18
251.41,-0.32,-0.18
251.41,-0.305,-0.18
251.41,-0.315,-0.18
251.41,-0.32,-0.185
251.42,-0.315,-0.19
251.42,-0.31,-0.19
251.42,-0.31,-0.18
251.42,-0.305,-0.165
251.43,-0.295,-0.18
251.43,-0.305,-0.175
251.43,-0.3,-0.17
251.44,-0.3,-0.16
251.44,-0.29,-0.135
251.44,-0.285,-0.11
251.44,-0.285,-0.02
251.45,-0.255,0.17
251.45,-0.23,0.55
251.45,-0.2,0.905
251.46,-0.16,0.9
251.46,-0.07,0.6
251.46,0.155,0.36
251.46,0.53,0.26
251.47,0.835,0.23
251.47,0.775,0.19
251.47,0.48,0.15
251.48,0.22,0.12
251.48,0.135,0.05
251.48,0.145,-0.035
251.48,0.165,-0.17
251.49,0.16,-0.34
251.49,0.17,-0.54
251.49,0.175,-0.785
251.49,0.19,-1.055
251.5,0.205,-1.33
251.5,0.2,-1.6
251.5,0.19,-1.855
251.51,0.18,-2.06
251.51,0.18,-2.225
251.51,0.17,-2.385
251.51,0.165,-2.51
251.52,0.17,-2.61
251.52,0.155,-2.7
251.52,0.15,-2.795
251.52,0.135,-2.89
251.53,0.1,-2.97
251.53,0.045,-3.03
251.53,-0.03,-3.055
251.54,-0.125,-3.08
251.54,-0.155,-3.08
251.54,-0.195,-3.1
251.54,-0.27,-3.095
251.55,-0.345,-3.12
251.55,-0.425,-3.135
251.55,-0.44,-3.115
251.56,-0.44,-3.105
251.56,-0.43,-3.095
251.56,-0.43,-3.08
251.56,-0.44,-3.085
251.57,-0.47,-3.065
251.57,-0.485,-3.01
251.57,-0.495,-2.93
251.57,-0.515,-2.835
251.58,-0.535,-2.72
251.58,-0.51,-2.585
251.58,-0.49,-2.43
251.59,-0.46,-2.235
251.59,-0.425,-2
251.59,-0.415,-1.745
251.59,-0.415,-1.5
251.6,-0.44,-1.29
251.6,-0.455,-1.07
251.6,-0.48,-0.83
251.61,-0.445,-0.6
251.61,-0.41,-0.405
251.61,-0.39,-0.225
251.61,-0.415,-0.065
251.62,-0.445,0.09
251.62,-0.46,0.245
251.62,-0.445,0.39
251.62,-0.425,0.5
251.63,-0.425,0.6
251.63,-0.42,0.64
251.63,-0.45,0.68
251.64,-0.45,0.72
251.64,-0.44,0.76
251.64,-0.425,0.8
251.64,-0.415,0.83
251.65,-0.415,0.845
251.65,-0.41,0.88
251.65,-0.395,0.905
251.66,-0.385,0.935
251.66,-0.395,0.965
251.66,-0.405,0.985
251.66,-0.41,0.99
251.67,-0.43,1.015
251.67,-0.41,1.055
251.67,-0.39,1.08
251.67,-0.37,1.11
251.68,-0.375,1.14
251.68,-0.385,1.16
251.68,-0.385,1.175
251.69,-0.4,1.21
251.69,-0.405,1.255
251.69,-0.385,1.285
251.69,-0.4,1.32
251.7,-0.405,1.34
251.7,-0.425,1.365
251.7,-0.415,1.41
251.71,-0.395,1.435
251.71,-0.375,1.48
251.71,-0.39,1.51
251.71,-0.395,1.545
251.72,-0.42,1.575
251.72,-0.44,1.605
251.72,-0.425,1.645
251.73,-0.415,1.68
251.73,-0.39,1.715
251.73,-0.37,1.735
251.73,-0.35,1.76
251.74,-0.345,1.78
251.74,-0.315,1.805
251.74,-0.285,1.825
251.74,-0.265,1.84
251.75,-0.265,1.84
251.75,-0.265,1.835
251.75,-0.26,1.84
251.76,-0.265,1.86
251.76,-0.255,1.855
251.76,-0.26,1.855
251.76,-0.245,1.82
251.77,-0.225,1.8
251.77,-0.21,1.795
251.77,-0.175,1.78
251.77,-0.145,1.75
251.78,-0.16,1.7
251.78,-0.155,1.655
251.78,-0.175,1.595
251.79,-0.17,1.555
251.79,-0.17,1.505
251.79,-0.135,1.455
251.79,-0.12,1.395
251.8,-0.105,1.305
251.8,-0.085,1.23
251.8,-0.08,1.18
251.81,-0.07,1.11
251.81,-0.06,1.04
251.81,-0.085,0.975
251.81,-0.1,0.895
251.82,-0.105,0.83
251.82,-0.085,0.77
251.82,-0.065,0.725
251.82,-0.05,0.665
251.83,-0.065,0.595
251.83,-0.075,0.545
251.83,-0.095,0.485
251.84,-0.105,0.445
251.84,-0.105,0.425
251.84,-0.09,0.375
251.84,-0.11,0.335
251.85,-0.115,0.3
251.85,-0.125,0.255
251.85,-0.13,0.235
251.86,-0.13,0.215
251.86,-0.125,0.195
251.86,-0.13,0.16
251.86,-0.155,0.14
251.87,-0.165,0.105
251.87,-0.18,0.1
251.87,-0.185,0.09
251.88,-0.175,0.085
251.88,-0.19,0.07
251.88,-0.19,0.055
251.88,-0.185,0.045
251.89,-0.185,0.04
251.89,-0.185,0.055
251.89,-0.175,0.03
251.89,-0.18,0.035
251.9,-0.2,0.015
251.9,-0.21,0.01
251.9,-0.215,0.01
251.91,-0.2,0.025
251.91,-0.195,0.01
251.91,-0.205,0.015
251.91,-0.21,0.01
251.92,-0.22,0
251.92,-0.225,0.005
251.92,-0.21,0.02
251.92,-0.21,0.03
251.93,-0.22,0.02
251.93,-0.22,0.015
251.93,-0.21,0
251.94,-0.22,0.005
251.94,-0.205,0.02
251.94,-0.195,0.025
251.94,-0.195,0.02
251.95,-0.21,-0.005
251.95,-0.22,-0.005
251.95,-0.225,0.015
251.96,-0.22,0.005
251.96,-0.205,0.015
251.96,-0.215,0.01
251.96,-0.22,0
251.97,-0.235,0.01
251.97,-0.24,0.005
251.97,-0.245,0.01
251.98,-0.22,0.01
251.98,-0.225,-0.005
251.98,-0.23,-0.015
251.98,-0.245,-0.01
251.99,-0.255,-0.015
251.99,-0.23,-0.01
251.99,-0.225,-0.01
251.99,-0.225,-0.015
252,-0.23,-0.035
252,-0.25,-0.05
252,-0.25,-0.04
252.01,-0.245,-0.025
252.01,-0.235,-0.03
252.01,-0.245,-0.035
252.01,-0.245,-0.045
252.02,-0.25,-0.05
252.02,-0.265,-0.055
252.02,-0.26,-0.055
252.02,-0.25,-0.065
252.03,-0.25,-0.065
252.03,-0.26,-0.09
252.03,-0.265,-0.085
252.04,-0.28,-0.09
252.04,-0.26,-0.085
252.04,-0.255,-0.09
252.04,-0.275,-0.09
252.05,-0.28,-0.095
252.05,-0.29,-0.105
252.05,-0.28,-0.11
252.06,-0.275,-0.095
252.06,-0.275,-0.115
252.06,-0.275,-0.1
252.06,-0.29,-0.125
252.07,-0.29,-0.135
252.07,-0.29,-0.135
252.07,-0.29,-0.11
252.07,-0.275,-0.125
252.08,-0.285,-0.125
252.08,-0.285,-0.14
252.08,-0.295,-0.155
252.09,-0.305,-0.15
252.09,-0.29,-0.135
252.09,-0.29,-0.145
252.09,-0.285,-0.145
252.1,-0.295,-0.155
252.1,-0.305,-0.16
252.1,-0.315,-0.16
252.11,-0.29,-0.14
252.11,-0.29,-0.14
252.11,-0.285,-0.13
252.11,-0.3,-0.15
252.12,-0.3,-0.165
252.12,-0.32,-0.165
252.12,-0.305,-0.155
252.12,-0.285,-0.145
252.13,-0.295,-0.155
252.13,-0.315,-0.16
252.13,-0.315,-0.18
252.14,-0.315,-0.16
252.14,-0.31,-0.155
252.14,-0.29,-0.155
252.14,-0.305,-0.155
252.15,-0.3,-0.165
252.15,-0.32,-0.165
252.15,-0.31,-0.17
252.16,-0.31,-0.15
252.16,-0.3,-0.16
252.16,-0.3,-0.165
252.16,-0.305,-0.17
252.17,-0.31,-0.165
252.17,-0.315,-0.155
252.17,-0.315,-0.17
252.17,-0.32,-0.155
252.18,-0.305,-0.165
252.18,-0.31,-0.175
252.18,-0.305,-0.18
252.19,-0.32,-0.17
252.19,-0.31,-0.17
252.19,-0.29,-0.165
252.19,-0.295,-0.16
252.2,-0.3,-0.18
252.2,-0.305,-0.19
252.2,-0.315,-0.175
252.21,-0.3,-0.165
252.21,-0.295,-0.16
252.21,-0.3,-0.165
252.21,-0.295,-0.17
252.22,-0.305,-0.18
252.22,-0.305,-0.165
252.22,-0.3,-0.16
252.23,-0.285,-0.15
252.23,-0.285,-0.155
252.23,-0.285,-0.16
252.23,-0.29,-0.14
252.24,-0.29,-0.075
252.24,-0.265,0.075
252.24,-0.235,0.385
252.24,-0.22,0.775
252.25,-0.19,0.95
252.25,-0.145,0.78
252.25,-0.02,0.485
252.26,0.26,0.33
252.26,0.645,0.295
252.26,0.86,0.265
252.26,0.725,0.22
252.27,0.395,0.175
252.27,0.155,0.14
252.27,0.115,0.1
252.27,0.145,0.03
252.28,0.175,-0.09
252.28,0.18,-0.255
252.28,0.185,-0.455
252.29,0.195,-0.67
252.29,0.23,-0.885
252.29,0.26,-1.1
252.29,0.255,-1.34
252.3,0.265,-1.61
252.3,0.245,-1.825
252.3,0.215,-2.005
252.31,0.225,-2.165
252.31,0.24,-2.305
252.31,0.245,-2.415
252.31,0.225,-2.515
252.32,0.21,-2.615
252.32,0.175,-2.725
252.32,0.17,-2.835
252.32,0.17,-2.925
252.33,0.12,-2.98
252.33,0.05,-3.015
252.33,-0.015,-3.045
252.34,-0.075,-3.06
252.34,-0.12,-3.085
252.34,-0.17,-3.085
252.34,-0.265,-3.105
252.35,-0.37,-3.12
252.35,-0.42,-3.13
252.35,-0.445,-3.115
252.36,-0.41,-3.1
252.36,-0.375,-3.095
252.36,-0.36,-3.085
252.36,-0.35,-3.065
252.37,-0.37,-3.03
252.37,-0.405,-2.965
252.37,-0.4,-2.87
252.38,-0.41,-2.775
252.38,-0.41,-2.66
252.38,-0.415,-2.525
252.38,-0.41,-2.365
252.39,-0.42,-2.165
252.39,-0.4,-1.935
252.39,-0.385,-1.69
252.39,-0.365,-1.445
252.4,-0.385,-1.255
252.4,-0.385,-1.045
252.4,-0.39,-0.805
252.41,-0.37,-0.575
252.41,-0.365,-0.37
252.41,-0.39,-0.215
252.41,-0.42,-0.06
252.42,-0.45,0.07
252.42,-0.47,0.225
252.42,-0.46,0.37
252.42,-0.44,0.475
252.43,-0.435,0.56
252.43,-0.445,0.605
252.43,-0.445,0.65
252.44,-0.45,0.69
252.44,-0.445,0.73
252.44,-0.435,0.775
252.44,-0.43,0.785
252.45,-0.44,0.81
252.45,-0.445,0.835
252.45,-0.455,0.855
252.46,-0.45,0.895
252.46,-0.445,0.925
252.46,-0.45,0.945
252.46,-0.46,0.955
252.47,-0.47,0.975
252.47,-0.475,1.01
252.47,-0.475,1.035
252.48,-0.46,1.07
252.48,-0.46,1.085
252.48,-0.465,1.1
252.48,-0.48,1.125
252.49,-0.495,1.155
252.49,-0.485,1.19
252.49,-0.47,1.225
252.49,-0.49,1.245
252.5,-0.505,1.28
252.5,-0.5,1.305
252.5,-0.505,1.34
252.51,-0.515,1.375
252.51,-0.49,1.415
252.51,-0.475,1.44
252.51,-0.495,1.465
252.52,-0.51,1.5
252.52,-0.505,1.525
252.52,-0.495,1.575
252.52,-0.485,1.615
252.53,-0.475,1.645
252.53,-0.475,1.665
252.53,-0.475,1.7
252.54,-0.485,1.735
252.54,-0.465,1.765
252.54,-0.46,1.8
252.54,-0.45,1.835
252.55,-0.45,1.835
252.55,-0.45,1.84
252.55,-0.44,1.875
252.56,-0.425,1.89
252.56,-0.395,1.9
252.56,-0.395,1.905
252.56,-0.38,1.895
252.57,-0.395,1.885
252.57,-0.365,1.885
252.57,-0.35,1.88
252.57,-0.315,1.87
252.58,-0.31,1.845
252.58,-0.305,1.8
252.58,-0.31,1.78
252.59,-0.28,1.745
252.59,-0.27,1.72
252.59,-0.25,1.67
252.59,-0.235,1.625
252.6,-0.24,1.555
252.6,-0.23,1.495
252.6,-0.22,1.45
252.61,-0.19,1.405
252.61,-0.175,1.32
252.61,-0.17,1.265
252.61,-0.165,1.195
252.62,-0.175,1.115
252.62,-0.165,1.05
252.62,-0.155,0.995
252.62,-0.14,0.93
252.63,-0.135,0.86
252.63,-0.145,0.8
252.63,-0.155,0.725
252.64,-0.15,0.685
252.64,-0.135,0.645
252.64,-0.135,0.59
252.64,-0.135,0.54
252.65,-0.145,0.475
252.65,-0.165,0.43
252.65,-0.165,0.39
252.66,-0.155,0.37
252.66,-0.155,0.33
252.66,-0.17,0.305
252.66,-0.205,0.265
252.67,-0.195,0.23
252.67,-0.205,0.2
252.67,-0.195,0.18
252.67,-0.18,0.165
252.68,-0.19,0.14
252.68,-0.2,0.125
252.68,-0.22,0.11
252.69,-0.215,0.1
252.69,-0.21,0.09
252.69,-0.21,0.085
252.69,-0.21,0.07
252.7,-0.23,0.035
252.7,-0.235,0.035
252.7,-0.245,0.035
252.71,-0.23,0.045
252.71,-0.24,0.04
252.71,-0.24,0.03
252.71,-0.245,0.015
252.72,-0.26,0.01
252.72,-0.255,0.015
252.72,-0.245,0.035
252.73,-0.24,0.02
252.73,-0.245,0.015
252.73,-0.255,0.01
252.73,-0.255,0
252.74,-0.265,0.025
252.74,-0.25,0.025
252.74,-0.24,0.03
252.74,-0.245,0.025
252.75,-0.25,0.01
252.75,-0.26,0.015
252.75,-0.265,0.01
252.76,-0.265,0.02
252.76,-0.255,0.02
252.76,-0.26,0.015
252.76,-0.265,0.01
252.77,-0.27,0
252.77,-0.265,0
252.77,-0.255,0.02
252.77,-0.25,0.015
252.78,-0.255,0.01
252.78,-0.27,0
252.78,-0.265,0
252.79,-0.27,-0.005
252.79,-0.265,0.01
252.79,-0.26,0.005
252.79,-0.27,0.005
252.8,-0.27,-0.005
252.8,-0.275,-0.015
252.8,-0.275,-0.01
252.81,-0.265,-0.01
252.81,-0.265,-0.01
252.81,-0.26,-0.005
252.81,-0.275,-0.03
252.82,-0.285,-0.035
252.82,-0.29,-0.025
252.82,-0.275,-0.02
252.82,-0.27,-0.025
252.83,-0.28,-0.035
252.83,-0.28,-0.055
252.83,-0.28,-0.06
252.84,-0.295,-0.055
252.84,-0.275,-0.05
252.84,-0.275,-0.045
252.84,-0.28,-0.05
252.85,-0.285,-0.07
252.85,-0.295,-0.08
252.85,-0.295,-0.085
252.86,-0.28,-0.075
252.86,-0.27,-0.09
252.86,-0.28,-0.08
252.86,-0.29,-0.095
252.87,-0.29,-0.1
252.87,-0.3,-0.1
252.87,-0.295,-0.095
252.88,-0.29,-0.105
252.88,-0.3,-0.11
252.88,-0.31,-0.125
252.88,-0.325,-0.13
252.89,-0.325,-0.13
252.89,-0.315,-0.125
252.89,-0.3,-0.125
252.89,-0.3,-0.125
252.9,-0.31,-0.145
252.9,-0.305,-0.145
252.9,-0.325,-0.14
252.91,-0.305,-0.12
252.91,-0.305,-0.13
252.91,-0.295,-0.13
252.91,-0.32,-0.15
252.92,-0.32,-0.165
252.92,-0.32,-0.155
252.92,-0.3,-0.145
252.92,-0.305,-0.145
252.93,-0.3,-0.155
252.93,-0.315,-0.15
252.93,-0.33,-0.17
252.94,-0.32,-0.165
252.94,-0.305,-0.15
252.94,-0.3,-0.155
252.94,-0.305,-0.16
252.95,-0.325,-0.16
252.95,-0.32,-0.165
252.95,-0.32,-0.165
252.96,-0.31,-0.16
252.96,-0.3,-0.165
252.96,-0.31,-0.165
252.96,-0.315,-0.175
252.97,-0.33,-0.19
252.97,-0.335,-0.18
252.97,-0.315,-0.155
252.98,-0.315,-0.17
252.98,-0.315,-0.17
252.98,-0.325,-0.18
252.98,-0.33,-0.19
252.99,-0.335,-0.18
252.99,-0.32,-0.175
252.99,-0.31,-0.17
252.99,-0.31,-0.175
253,-0.31,-0.185
253,-0.325,-0.19
253,-0.32,-0.185
253.01,-0.32,-0.17
253.01,-0.3,-0.175
253.01,-0.31,-0.175
253.01,-0.315,-0.195
253.02,-0.31,-0.2
253.02,-0.32,-0.195
253.02,-0.305,-0.18
253.02,-0.31,-0.18
253.03,-0.3,-0.18
253.03,-0.305,-0.175
253.03,-0.32,-0.19
253.04,-0.315,-0.195
253.04,-0.3,-0.18
253.04,-0.29,-0.17
253.04,-0.295,-0.185
253.05,-0.3,-0.185
253.05,-0.305,-0.21
253.05,-0.3,-0.18
253.06,-0.29,-0.155
253.06,-0.27,-0.16
253.06,-0.275,-0.16
253.06,-0.275,-0.14
253.07,-0.27,-0.095
253.07,-0.275,0.05
253.07,-0.245,0.335
253.07,-0.2,0.69
253.08,-0.175,0.9
253.08,-0.135,0.775
253.08,-0.04,0.5
253.09,0.195,0.32
253.09,0.575,0.27
253.09,0.87,0.235
253.09,0.8,0.185
253.1,0.485,0.135
253.1,0.21,0.095
253.1,0.1,0.055
253.11,0.135,0
253.11,0.165,-0.1
253.11,0.175,-0.24
253.11,0.18,-0.44
253.12,0.185,-0.665
253.12,0.19,-0.905
253.12,0.215,-1.15
253.12,0.235,-1.405
253.13,0.235,-1.67
253.13,0.225,-1.91
253.13,0.205,-2.09
253.14,0.205,-2.245
253.14,0.22,-2.375
253.14,0.25,-2.48
253.14,0.24,-2.57
253.15,0.225,-2.665
253.15,0.215,-2.765
253.15,0.195,-2.88
253.16,0.21,-2.93
253.16,0.17,-2.995
253.16,0.105,-3.045
253.16,0.03,-3.06
253.17,-0.04,-3.09
253.17,-0.08,-3.1
253.17,-0.125,-3.105
253.17,-0.21,-3.115
253.18,-0.3,-3.125
253.18,-0.365,-3.14
253.18,-0.375,-3.14
253.19,-0.36,-3.14
253.19,-0.31,-3.115
253.19,-0.28,-3.1
253.19,-0.28,-3.085
253.2,-0.31,-3.05
253.2,-0.34,-3.005
253.2,-0.36,-2.92
253.21,-0.36,-2.805
253.21,-0.37,-2.7
253.21,-0.39,-2.565
253.21,-0.385,-2.42
253.22,-0.385,-2.215
253.22,-0.375,-1.975
253.22,-0.37,-1.72
253.23,-0.355,-1.49
253.23,-0.375,-1.26
253.23,-0.365,-1.025
253.23,-0.37,-0.755
253.24,-0.38,-0.505
253.24,-0.365,-0.285
253.24,-0.375,-0.125
253.24,-0.415,0.035
253.25,-0.44,0.175
253.25,-0.455,0.335
253.25,-0.445,0.475
253.26,-0.42,0.585
253.26,-0.41,0.645
253.26,-0.415,0.69
253.26,-0.435,0.72
253.27,-0.435,0.765
253.27,-0.435,0.795
253.27,-0.425,0.825
253.27,-0.41,0.88
253.28,-0.43,0.905
253.28,-0.43,0.915
253.28,-0.445,0.93
253.29,-0.445,0.96
253.29,-0.44,0.995
253.29,-0.425,1.025
253.29,-0.44,1.05
253.3,-0.455,1.06
253.3,-0.465,1.095
253.3,-0.465,1.125
253.31,-0.465,1.17
253.31,-0.45,1.195
253.31,-0.465,1.24
253.31,-0.47,1.265
253.32,-0.475,1.295
253.32,-0.465,1.335
253.32,-0.465,1.39
253.32,-0.46,1.42
253.33,-0.45,1.465
253.33,-0.455,1.485
253.33,-0.46,1.515
253.34,-0.47,1.56
253.34,-0.465,1.605
253.34,-0.45,1.655
253.34,-0.455,1.685
253.35,-0.445,1.71
253.35,-0.455,1.735
253.35,-0.45,1.785
253.36,-0.445,1.82
253.36,-0.42,1.855
253.36,-0.42,1.89
253.36,-0.425,1.89
253.37,-0.41,1.925
253.37,-0.41,1.945
253.37,-0.395,1.96
253.38,-0.385,1.99
253.38,-0.375,1.985
253.38,-0.37,1.985
253.38,-0.37,1.985
253.39,-0.36,1.995
253.39,-0.345,1.99
253.39,-0.325,1.975
253.39,-0.315,1.95
253.4,-0.31,1.925
253.4,-0.305,1.89
253.4,-0.295,1.865
253.41,-0.27,1.84
253.41,-0.23,1.795
253.41,-0.235,1.74
253.41,-0.225,1.67
253.42,-0.22,1.61
253.42,-0.19,1.545
253.42,-0.17,1.5
253.42,-0.16,1.425
253.43,-0.155,1.35
253.43,-0.16,1.27
253.43,-0.145,1.195
253.44,-0.135,1.125
253.44,-0.12,1.065
253.44,-0.12,1
253.44,-0.12,0.93
253.45,-0.13,0.855
253.45,-0.125,0.795
253.45,-0.14,0.73
253.46,-0.125,0.685
253.46,-0.12,0.63
253.46,-0.125,0.575
253.46,-0.145,0.51
253.47,-0.16,0.465
253.47,-0.17,0.425
253.47,-0.16,0.39
253.48,-0.15,0.365
253.48,-0.15,0.325
253.48,-0.16,0.28
253.48,-0.165,0.245
253.49,-0.175,0.225
253.49,-0.17,0.205
253.49,-0.17,0.19
253.49,-0.185,0.155
253.5,-0.195,0.13
253.5,-0.21,0.11
253.5,-0.22,0.095
253.51,-0.2,0.095
253.51,-0.195,0.085
253.51,-0.225,0.08
253.51,-0.22,0.06
253.52,-0.22,0.045
253.52,-0.225,0.05
253.52,-0.22,0.05
253.52,-0.225,0.06
253.53,-0.23,0.04
253.53,-0.23,0.025
253.53,-0.25,0.02
253.54,-0.255,0.02
253.54,-0.25,0.04
253.54,-0.24,0.035
253.54,-0.25,0.045
253.55,-0.26,0.005
253.55,-0.27,0
253.55,-0.255,0.01
253.56,-0.24,0.025
253.56,-0.235,0.035
253.56,-0.23,0.025
253.56,-0.255,0.01
253.57,-0.25,0.01
253.57,-0.235,0.02
253.57,-0.245,0.03
253.57,-0.235,0.025
253.58,-0.245,0.01
253.58,-0.245,0.005
253.58,-0.255,-0.005
253.59,-0.255,-0.005
253.59,-0.255,0.015
253.59,-0.25,0.02
253.59,-0.25,0
253.6,-0.255,-0.02
253.6,-0.265,-0.01
253.6,-0.265,-0.005
253.61,-0.245,-0.005
253.61,-0.245,0.01
253.61,-0.255,-0.01
253.61,-0.26,-0.015
253.62,-0.275,-0.02
253.62,-0.27,-0.02
253.62,-0.26,-0.015
253.62,-0.255,-0.02
253.63,-0.26,-0.02
253.63,-0.27,-0.035
253.63,-0.285,-0.045
253.64,-0.305,-0.045
253.64,-0.3,-0.045
253.64,-0.275,-0.05
253.64,-0.275,-0.055
253.65,-0.27,-0.065
253.65,-0.27,-0.075
253.65,-0.27,-0.065
253.66,-0.26,-0.06
253.66,-0.25,-0.065
253.66,-0.265,-0.075
253.66,-0.285,-0.1
253.67,-0.275,-0.09
253.67,-0.28,-0.095
253.67,-0.28,-0.085
253.67,-0.265,-0.09
253.68,-0.275,-0.09
253.68,-0.295,-0.115
253.68,-0.295,-0.11
253.69,-0.295,-0.115
253.69,-0.29,-0.125
253.69,-0.285,-0.115
253.69,-0.28,-0.11
253.7,-0.285,-0.125
253.7,-0.29,-0.125
253.7,-0.3,-0.115
253.71,-0.29,-0.12
253.71,-0.295,-0.125
253.71,-0.29,-0.13
253.71,-0.295,-0.14
253.72,-0.29,-0.16
253.72,-0.3,-0.15
253.72,-0.29,-0.14
253.73,-0.285,-0.145
253.73,-0.305,-0.145
253.73,-0.315,-0.165
253.73,-0.305,-0.165
253.74,-0.315,-0.16
253.74,-0.305,-0.155
253.74,-0.295,-0.155
253.74,-0.3,-0.16
253.75,-0.315,-0.17
253.75,-0.3,-0.17
253.75,-0.31,-0.165
253.76,-0.28,-0.17
253.76,-0.28,-0.16
253.76,-0.28,-0.175
253.76,-0.285,-0.175
253.77,-0.305,-0.19
253.77,-0.305,-0.18
253.77,-0.305,-0.165
253.77,-0.29,-0.17
253.78,-0.295,-0.17
253.78,-0.32,-0.185
253.78,-0.32,-0.185
253.79,-0.315,-0.185
253.79,-0.305,-0.165
253.79,-0.3,-0.165
253.79,-0.3,-0.17
253.8,-0.3,-0.175
253.8,-0.315,-0.2
253.8,-0.315,-0.175
253.81,-0.295,-0.175
253.81,-0.29,-0.17
253.81,-0.29,-0.17
253.81,-0.285,-0.195
253.82,-0.28,-0.2
253.82,-0.28,-0.195
253.82,-0.27,-0.175
253.82,-0.265,-0.18
253.83,-0.27,-0.185
253.83,-0.29,-0.21
253.83,-0.29,-0.205
253.84,-0.28,-0.19
253.84,-0.27,-0.175
253.84,-0.26,-0.175
253.84,-0.255,-0.18
253.85,-0.265,-0.19
253.85,-0.28,-0.195
253.85,-0.285,-0.175
253.86,-0.29,-0.17
253.86,-0.285,-0.165
253.86,-0.295,-0.17
253.86,-0.3,-0.19
253.87,-0.285,-0.175
253.87,-0.27,-0.17
253.87,-0.25,-0.15
253.88,-0.24,-0.135
253.88,-0.235,-0.075
253.88,-0.245,0.05
253.88,-0.23,0.35
253.89,-0.2,0.75
253.89,-0.15,0.945
253.89,-0.08,0.78
253.89,0.045,0.51
253.9,0.3,0.325
253.9,0.665,0.265
253.9,0.905,0.225
253.91,0.815,0.195
253.91,0.495,0.14
253.91,0.21,0.095
253.91,0.115,0.025
253.92,0.14,-0.065
253.92,0.175,-0.175
253.92,0.19,-0.335
253.92,0.22,-0.545
253.93,0.225,-0.8
253.93,0.23,-1.055
253.93,0.22,-1.315
253.94,0.205,-1.575
253.94,0.195,-1.8
253.94,0.19,-2.025
253.94,0.165,-2.2
253.95,0.185,-2.365
253.95,0.195,-2.5
253.95,0.225,-2.585
253.96,0.225,-2.655
253.96,0.21,-2.75
253.96,0.195,-2.85
253.96,0.17,-2.94
253.97,0.135,-3.025
253.97,0.085,-3.035
253.97,0,-3.055
253.98,-0.065,-3.065
253.98,-0.12,-3.105
253.98,-0.18,-3.125
253.98,-0.255,-3.14
253.99,-0.33,-3.135
253.99,-0.4,-3.13
253.99,-0.425,-3.14
253.99,-0.425,-3.13
254,-0.385,-3.135
254,-0.36,-3.13
254,-0.35,-3.105
254.01,-0.37,-3.065
254.01,-0.41,-3.015
254.01,-0.445,-2.95
254.01,-0.45,-2.87
254.02,-0.45,-2.74
254.02,-0.45,-2.59
254.02,-0.425,-2.44
254.02,-0.405,-2.235
254.03,-0.395,-2
254.03,-0.41,-1.76
254.03,-0.405,-1.51
254.04,-0.405,-1.26
254.04,-0.365,-1.005
254.04,-0.34,-0.76
254.04,-0.325,-0.535
254.05,-0.33,-0.33
254.05,-0.35,-0.16
254.05,-0.365,0.005
254.06,-0.41,0.165
254.06,-0.425,0.32
254.06,-0.425,0.445
254.06,-0.42,0.525
254.07,-0.39,0.595
254.07,-0.365,0.65
254.07,-0.35,0.71
254.07,-0.355,0.75
254.08,-0.375,0.775
254.08,-0.405,0.79
254.08,-0.385,0.825
254.09,-0.38,0.85
254.09,-0.37,0.895
254.09,-0.35,0.91
254.09,-0.345,0.935
254.1,-0.355,0.955
254.1,-0.365,0.965
254.1,-0.37,1.01
254.11,-0.355,1.05
254.11,-0.345,1.075
254.11,-0.35,1.105
254.11,-0.375,1.115
254.12,-0.405,1.15
254.12,-0.415,1.195
254.12,-0.39,1.23
254.12,-0.38,1.26
254.13,-0.38,1.3
254.13,-0.38,1.315
254.13,-0.395,1.355
254.14,-0.41,1.41
254.14,-0.42,1.45
254.14,-0.4,1.475
254.14,-0.39,1.505
254.15,-0.39,1.525
254.15,-0.385,1.56
254.15,-0.38,1.6
254.16,-0.35,1.64
254.16,-0.33,1.675
254.16,-0.315,1.71
254.16,-0.32,1.725
254.17,-0.31,1.745
254.17,-0.32,1.79
254.17,-0.32,1.815
254.17,-0.315,1.855
254.18,-0.315,1.86
254.18,-0.305,1.855
254.18,-0.29,1.86
254.19,-0.27,1.87
254.19,-0.25,1.89
254.19,-0.23,1.875
254.19,-0.22,1.865
254.2,-0.21,1.84
254.2,-0.2,1.82
254.2,-0.18,1.79
254.21,-0.16,1.78
254.21,-0.135,1.74
254.21,-0.125,1.695
254.21,-0.125,1.635
254.22,-0.115,1.58
254.22,-0.12,1.53
254.22,-0.105,1.49
254.23,-0.09,1.415
254.23,-0.095,1.34
254.23,-0.095,1.265
254.23,-0.105,1.2
254.24,-0.09,1.135
254.24,-0.05,1.075
254.24,-0.035,1.005
254.24,-0.04,0.93
254.25,-0.05,0.845
254.25,-0.055,0.775
254.25,-0.05,0.73
254.26,-0.04,0.685
254.26,-0.045,0.61
254.26,-0.07,0.565
254.26,-0.075,0.505
254.27,-0.09,0.455
254.27,-0.09,0.415
254.27,-0.085,0.38
254.27,-0.065,0.335
254.28,-0.07,0.305
254.28,-0.085,0.26
254.28,-0.1,0.24
254.29,-0.115,0.21
254.29,-0.13,0.19
254.29,-0.135,0.175
254.29,-0.145,0.14
254.3,-0.13,0.12
254.3,-0.13,0.105
254.3,-0.13,0.08
254.31,-0.145,0.08
254.31,-0.15,0.08
254.31,-0.145,0.07
254.31,-0.17,0.035
254.32,-0.18,0.04
254.32,-0.195,0.05
254.32,-0.18,0.045
254.32,-0.165,0.035
254.33,-0.17,0.025
254.33,-0.18,0.025
254.33,-0.185,0.015
254.34,-0.18,0.03
254.34,-0.18,0.03
254.34,-0.17,0.015
254.34,-0.18,0.02
254.35,-0.18,0
254.35,-0.185,0.005
254.35,-0.18,0.005
254.36,-0.2,0.01
254.36,-0.185,0.015
254.36,-0.19,0.01
254.36,-0.205,0
254.37,-0.2,0
254.37,-0.205,0
254.37,-0.19,0.015
254.38,-0.175,0.015
254.38,-0.18,0.005
254.38,-0.185,-0.015
254.38,-0.195,-0.015
254.39,-0.195,-0.005
254.39,-0.19,0
254.39,-0.195,-0.005
254.39,-0.2,-0.005
254.4,-0.205,-0.01
254.4,-0.22,-0.02
254.4,-0.22,-0.005
254.41,-0.21,0.005
254.41,-0.215,0
254.41,-0.215,0
254.41,-0.225,-0.025
254.42,-0.23,-0.035
254.42,-0.225,-0.025
254.42,-0.21,-0.01
254.42,-0.22,-0.005
254.43,-0.2,-0.03
254.43,-0.215,-0.03
254.43,-0.23,-0.045
254.44,-0.235,-0.035
254.44,-0.22,-0.035
254.44,-0.21,-0.035
254.44,-0.22,-0.045
254.45,-0.22,-0.07
254.45,-0.215,-0.065
254.45,-0.22,-0.07
254.46,-0.22,-0.06
254.46,-0.215,-0.07
254.46,-0.215,-0.065
254.46,-0.23,-0.09
254.47,-0.24,-0.095
254.47,-0.24,-0.085
254.47,-0.24,-0.085
254.48,-0.235,-0.085
254.48,-0.23,-0.095
254.48,-0.235,-0.115
254.48,-0.255,-0.125
254.49,-0.255,-0.115
254.49,-0.245,-0.12
254.49,-0.23,-0.115
254.49,-0.235,-0.115
254.5,-0.245,-0.13
254.5,-0.255,-0.135
254.5,-0.255,-0.13
254.51,-0.25,-0.125
254.51,-0.235,-0.13
254.51,-0.255,-0.14
254.51,-0.25,-0.155
254.52,-0.26,-0.155
254.52,-0.255,-0.145
254.52,-0.245,-0.145
254.52,-0.245,-0.14
254.53,-0.25,-0.145
254.53,-0.255,-0.155
254.53,-0.27,-0.175
254.54,-0.265,-0.16
254.54,-0.26,-0.16
254.54,-0.255,-0.16
254.54,-0.265,-0.16
254.55,-0.275,-0.17
254.55,-0.28,-0.18
254.55,-0.29,-0.175
254.56,-0.26,-0.155
254.56,-0.245,-0.155
254.56,-0.255,-0.17
254.56,-0.265,-0.18
254.57,-0.275,-0.18
254.57,-0.28,-0.185
254.57,-0.265,-0.175
254.57,-0.255,-0.18
254.58,-0.265,-0.175
254.58,-0.28,-0.185
254.58,-0.265,-0.195
254.59,-0.265,-0.19
254.59,-0.275,-0.18
254.59,-0.265,-0.175
254.59,-0.255,-0.18
254.6,-0.26,-0.19
254.6,-0.275,-0.19
254.6,-0.28,-0.2
254.61,-0.265,-0.185
254.61,-0.265,-0.18
254.61,-0.265,-0.17
254.61,-0.275,-0.18
254.62,-0.28,-0.2
254.62,-0.275,-0.195
254.62,-0.275,-0.175
254.62,-0.265,-0.175
254.63,-0.265,-0.175
254.63,-0.275,-0.195
254.63,-0.27,-0.2
254.64,-0.28,-0.205
254.64,-0.26,-0.175
254.64,-0.255,-0.185
254.64,-0.245,-0.19
254.65,-0.26,-0.2
254.65,-0.265,-0.205
254.65,-0.275,-0.195
254.66,-0.265,-0.195
254.66,-0.255,-0.185
254.66,-0.265,-0.185
254.66,-0.255,-0.205
254.67,-0.27,-0.205
254.67,-0.265,-0.19
254.67,-0.255,-0.185
254.67,-0.245,-0.175
254.68,-0.245,-0.185
254.68,-0.245,-0.185
254.68,-0.245,-0.165
254.69,-0.24,-0.14
254.69,-0.235,-0.08
254.69,-0.205,0.07
254.69,-0.195,0.425
254.7,-0.17,0.83
254.7,-0.12,0.92
254.7,-0.025,0.67
254.71,0.21,0.405
254.71,0.6,0.28
254.71,0.975,0.24
254.71,0.985,0.21
254.72,0.66,0.17
254.72,0.315,0.14
254.72,0.17,0.115
254.73,0.17,0.035
254.73,0.2,-0.06
254.73,0.23,-0.21
254.73,0.225,-0.41
254.74,0.235,-0.62
254.74,0.255,-0.83
254.74,0.275,-1.06
254.74,0.305,-1.32
254.75,0.295,-1.565
254.75,0.28,-1.795
254.75,0.26,-1.97
254.76,0.275,-2.115
254.76,0.275,-2.275
254.76,0.285,-2.39
254.76,0.28,-2.505
254.77,0.26,-2.6
254.77,0.23,-2.705
254.77,0.23,-2.815
254.77,0.22,-2.925
254.78,0.18,-2.985
254.78,0.12,-3.03
254.78,0.045,-3.06
254.79,-0.02,-3.07
254.79,-0.05,-3.09
254.79,-0.09,-3.11
254.79,-0.185,-3.13
254.8,-0.285,-3.145
254.8,-0.35,-3.16
254.8,-0.38,-3.155
254.81,-0.36,-3.14
254.81,-0.33,-3.13
254.81,-0.325,-3.125
254.81,-0.33,-3.105
254.82,-0.33,-3.075
254.82,-0.335,-3.025
254.82,-0.35,-2.925
254.82,-0.355,-2.82
254.83,-0.375,-2.69
254.83,-0.375,-2.555
254.83,-0.375,-2.405
254.84,-0.35,-2.215
254.84,-0.35,-1.975
254.84,-0.33,-1.74
254.84,-0.33,-1.505
254.85,-0.345,-1.305
254.85,-0.35,-1.105
254.85,-0.345,-0.87
254.86,-0.335,-0.605
254.86,-0.34,-0.395
254.86,-0.345,-0.2
254.86,-0.37,-0.025
254.87,-0.4,0.14
254.87,-0.405,0.285
254.87,-0.4,0.415
254.88,-0.395,0.52
254.88,-0.395,0.58
254.88,-0.405,0.62
254.88,-0.41,0.655
254.89,-0.415,0.715
254.89,-0.4,0.75
254.89,-0.39,0.785
254.89,-0.4,0.805
254.9,-0.415,0.82
254.9,-0.41,0.85
254.9,-0.415,0.88
254.91,-0.41,0.91
254.91,-0.415,0.935
254.91,-0.41,0.965
254.91,-0.425,0.98
254.92,-0.445,0.995
254.92,-0.445,1.025
254.92,-0.43,1.06
254.92,-0.425,1.085
254.93,-0.435,1.1
254.93,-0.445,1.11
254.93,-0.455,1.14
254.94,-0.46,1.175
254.94,-0.47,1.205
254.94,-0.45,1.245
254.94,-0.465,1.275
254.95,-0.465,1.29
254.95,-0.48,1.32
254.95,-0.485,1.35
254.96,-0.47,1.395
254.96,-0.455,1.43
254.96,-0.48,1.445
254.96,-0.48,1.47
254.97,-0.48,1.5
254.97,-0.485,1.545
254.97,-0.465,1.59
254.98,-0.455,1.625
254.98,-0.455,1.645
254.98,-0.46,1.67
254.98,-0.455,1.695
254.99,-0.45,1.73
254.99,-0.435,1.77
254.99,-0.435,1.8
254.99,-0.42,1.82
255,-0.415,1.83
255,-0.43,1.835
255,-0.415,1.865
255.01,-0.4,1.88
255.01,-0.37,1.89
255.01,-0.36,1.885
255.01,-0.35,1.88
255.02,-0.345,1.875
255.02,-0.335,1.87
255.02,-0.315,1.865
255.02,-0.3,1.845
255.03,-0.29,1.825
255.03,-0.285,1.8
255.03,-0.285,1.77
255.04,-0.265,1.735
255.04,-0.24,1.705
255.04,-0.22,1.665
255.04,-0.205,1.615
255.05,-0.205,1.545
255.05,-0.21,1.505
255.05,-0.185,1.445
255.06,-0.165,1.395
255.06,-0.155,1.345
255.06,-0.14,1.275
255.06,-0.14,1.2
255.07,-0.14,1.135
255.07,-0.13,1.08
255.07,-0.105,1.035
255.07,-0.1,0.97
255.08,-0.095,0.905
255.08,-0.105,0.83
255.08,-0.11,0.785
255.09,-0.1,0.73
255.09,-0.095,0.68
255.09,-0.1,0.635
255.09,-0.105,0.585
255.1,-0.11,0.535
255.1,-0.12,0.47
255.1,-0.13,0.445
255.11,-0.12,0.415
255.11,-0.115,0.37
255.11,-0.115,0.325
255.11,-0.13,0.28
255.12,-0.15,0.24
255.12,-0.14,0.23
255.12,-0.145,0.215
255.12,-0.145,0.19
255.13,-0.145,0.165
255.13,-0.16,0.13
255.13,-0.165,0.12
255.14,-0.175,0.12
255.14,-0.175,0.105
255.14,-0.17,0.09
255.14,-0.18,0.075
255.15,-0.185,0.05
255.15,-0.19,0.05
255.15,-0.19,0.04
255.16,-0.19,0.06
255.16,-0.175,0.045
255.16,-0.18,0.03
255.16,-0.2,0.01
255.17,-0.205,0
255.17,-0.205,0.015
255.17,-0.205,0.015
255.17,-0.195,0.02
255.18,-0.205,0.005
255.18,-0.215,0
255.18,-0.22,0
255.19,-0.225,0.005
255.19,-0.205,0.005
255.19,-0.205,0.015
255.19,-0.2,0.015
255.2,-0.205,0
255.2,-0.21,0
255.2,-0.215,0
255.21,-0.23,0.01
255.21,-0.21,0
255.21,-0.195,0.005
255.21,-0.215,0
255.22,-0.22,-0.005
255.22,-0.215,-0.005
255.22,-0.215,0
255.23,-0.21,0.015
255.23,-0.2,0.015
255.23,-0.21,0.005
255.23,-0.215,-0.01
255.24,-0.225,-0.015
255.24,-0.215,0.01
255.24,-0.205,0.005
255.24,-0.21,-0.005
255.25,-0.22,-0.015
255.25,-0.225,-0.015
255.25,-0.22,-0.015
255.26,-0.22,0
255.26,-0.215,-0.005
255.26,-0.225,0
255.26,-0.22,-0.035
255.27,-0.23,-0.03
255.27,-0.23,-0.025
255.27,-0.225,-0.015
255.27,-0.215,-0.02
255.28,-0.23,-0.03
255.28,-0.24,-0.04
255.28,-0.245,-0.05
255.29,-0.24,-0.045
255.29,-0.24,-0.04
255.29,-0.235,-0.05
255.29,-0.23,-0.045
255.3,-0.235,-0.065
255.3,-0.255,-0.07
255.3,-0.25,-0.07
255.31,-0.24,-0.06
255.31,-0.24,-0.075
255.31,-0.245,-0.085
255.31,-0.25,-0.095
255.32,-0.26,-0.095
255.32,-0.255,-0.1
255.32,-0.25,-0.09
255.32,-0.25,-0.105
255.33,-0.255,-0.105
255.33,-0.26,-0.11
255.33,-0.27,-0.115
255.34,-0.27,-0.12
255.34,-0.27,-0.12
255.34,-0.245,-0.125
255.34,-0.25,-0.115
255.35,-0.265,-0.145
255.35,-0.285,-0.15
255.35,-0.27,-0.14
255.36,-0.26,-0.135
255.36,-0.265,-0.145
255.36,-0.26,-0.15
255.36,-0.27,-0.15
255.37,-0.275,-0.17
255.37,-0.28,-0.165
255.37,-0.27,-0.14
255.38,-0.275,-0.15
255.38,-0.265,-0.16
255.38,-0.27,-0.17
255.38,-0.28,-0.18
255.39,-0.28,-0.17
255.39,-0.285,-0.17
255.39,-0.27,-0.16
255.39,-0.26,-0.175
255.4,-0.28,-0.17
255.4,-0.29,-0.18
255.4,-0.29,-0.18
255.41,-0.28,-0.175
255.41,-0.28,-0.175
255.41,-0.27,-0.185
255.41,-0.285,-0.18
255.42,-0.295,-0.185
255.42,-0.285,-0.185
255.42,-0.275,-0.18
255.42,-0.27,-0.165
255.43,-0.275,-0.18
255.43,-0.275,-0.195
255.43,-0.28,-0.195
255.44,-0.29,-0.19
255.44,-0.275,-0.185
255.44,-0.27,-0.19
255.44,-0.275,-0.19
255.45,-0.285,-0.19
255.45,-0.285,-0.19
255.45,-0.29,-0.2
255.46,-0.27,-0.175
255.46,-0.265,-0.185
255.46,-0.265,-0.195
255.46,-0.27,-0.2
255.47,-0.285,-0.205
255.47,-0.285,-0.2
255.47,-0.27,-0.195
255.48,-0.265,-0.185
255.48,-0.265,-0.19
255.48,-0.265,-0.2
255.48,-0.27,-0.2
255.49,-0.27,-0.2
255.49,-0.26,-0.18
255.49,-0.26,-0.185
255.49,-0.26,-0.2
255.5,-0.27,-0.205
255.5,-0.275,-0.21
255.5,-0.27,-0.2
255.51,-0.255,-0.175
255.51,-0.25,-0.195
255.51,-0.24,-0.195
255.51,-0.265,-0.2
255.52,-0.26,-0.2
255.52,-0.27,-0.2
255.52,-0.255,-0.185
255.52,-0.245,-0.175
255.53,-0.24,-0.18
255.53,-0.25,-0.17
255.53,-0.255,-0.175
255.54,-0.255,-0.145
255.54,-0.235,-0.105
255.54,-0.225,0.01
255.54,-0.195,0.28
255.55,-0.17,0.665
255.55,-0.145,0.845
255.55,-0.09,0.685
255.56,0.05,0.425
255.56,0.375,0.26
255.56,0.79,0.235
255.56,0.95,0.19
255.57,0.765,0.145
255.57,0.435,0.12
255.57,0.24,0.085
255.57,0.19,0.03
255.58,0.205,-0.06
255.58,0.215,-0.195
255.58,0.22,-0.37
255.59,0.215,-0.565
255.59,0.23,-0.8
255.59,0.255,-1.035
255.59,0.26,-1.285
255.6,0.265,-1.54
255.6,0.255,-1.815
255.6,0.25,-2.015
255.61,0.255,-2.165
255.61,0.26,-2.315
255.61,0.265,-2.455
255.61,0.27,-2.555
255.62,0.265,-2.65
255.62,0.255,-2.74
255.62,0.25,-2.85
255.62,0.245,-2.92
255.63,0.23,-3.005
255.63,0.155,-3.055
255.63,0.08,-3.07
255.64,0.01,-3.09
255.64,-0.02,-3.11
255.64,-0.07,-3.11
255.64,-0.14,-3.13
255.65,-0.24,-3.13
255.65,-0.315,-3.135
255.65,-0.34,-3.135
255.66,-0.305,-3.11
255.66,-0.265,-3.115
255.66,-0.245,-3.105
255.66,-0.245,-3.105
255.67,-0.275,-3.07
255.67,-0.29,-3.01
255.67,-0.3,-2.935
255.67,-0.325,-2.825
255.68,-0.355,-2.71
255.68,-0.385,-2.58
255.68,-0.37,-2.415
255.69,-0.355,-2.19
255.69,-0.34,-1.945
255.69,-0.335,-1.72
255.69,-0.33,-1.505
255.7,-0.34,-1.295
255.7,-0.35,-1.065
255.7,-0.35,-0.83
255.71,-0.335,-0.62
255.71,-0.35,-0.425
255.71,-0.365,-0.255
255.71,-0.385,-0.095
255.72,-0.415,0.035
255.72,-0.425,0.2
255.72,-0.425,0.345
255.73,-0.4,0.475
255.73,-0.385,0.55
255.73,-0.395,0.6
255.73,-0.41,0.66
255.74,-0.415,0.695
255.74,-0.405,0.74
255.74,-0.405,0.78
255.74,-0.395,0.805
255.75,-0.41,0.815
255.75,-0.42,0.835
255.75,-0.415,0.88
255.76,-0.41,0.92
255.76,-0.405,0.94
255.76,-0.415,0.95
255.76,-0.42,0.96
255.77,-0.435,0.98
255.77,-0.44,1.02
255.77,-0.435,1.045
255.77,-0.42,1.065
255.78,-0.42,1.09
255.78,-0.43,1.11
255.78,-0.44,1.135
255.79,-0.455,1.16
255.79,-0.445,1.2
255.79,-0.44,1.235
255.79,-0.44,1.255
255.8,-0.445,1.295
255.8,-0.46,1.32
255.8,-0.46,1.365
255.81,-0.455,1.395
255.81,-0.44,1.425
255.81,-0.445,1.455
255.81,-0.45,1.48
255.82,-0.455,1.495
255.82,-0.445,1.545
255.82,-0.44,1.585
255.82,-0.42,1.62
255.83,-0.43,1.645
255.83,-0.435,1.655
255.83,-0.435,1.69
255.84,-0.435,1.725
255.84,-0.42,1.76
255.84,-0.405,1.805
255.84,-0.41,1.82
255.85,-0.405,1.83
255.85,-0.4,1.85
255.85,-0.39,1.875
255.86,-0.385,1.89
255.86,-0.355,1.91
255.86,-0.35,1.915
255.86,-0.355,1.915
255.87,-0.355,1.91
255.87,-0.345,1.915
255.87,-0.335,1.915
255.88,-0.305,1.915
255.88,-0.28,1.895
255.88,-0.285,1.86
255.88,-0.28,1.83
255.89,-0.26,1.815
255.89,-0.235,1.78
255.89,-0.225,1.745
255.89,-0.215,1.705
255.9,-0.22,1.66
255.9,-0.205,1.59
255.9,-0.195,1.55
255.91,-0.175,1.495
255.91,-0.155,1.445
255.91,-0.15,1.375
255.91,-0.15,1.3
255.92,-0.15,1.23
255.92,-0.145,1.175
255.92,-0.125,1.12
255.92,-0.12,1.045
255.93,-0.12,0.99
255.93,-0.12,0.9
255.93,-0.125,0.845
255.94,-0.135,0.795
255.94,-0.12,0.74
255.94,-0.115,0.69
255.94,-0.11,0.635
255.95,-0.11,0.58
255.95,-0.125,0.52
255.95,-0.12,0.475
255.96,-0.115,0.45
255.96,-0.11,0.405
255.96,-0.11,0.36
255.96,-0.13,0.32
255.97,-0.155,0.28
255.97,-0.155,0.24
255.97,-0.16,0.23
255.98,-0.15,0.205
255.98,-0.15,0.175
255.98,-0.16,0.155
255.98,-0.19,0.12
255.99,-0.2,0.1
255.99,-0.185,0.09
255.99,-0.19,0.075
255.99,-0.19,0.06
256,-0.19,0.03
256,-0.205,0.03
256,-0.21,0.03
256.01,-0.195,0.025
256.01,-0.195,0.01
256.01,-0.2,0
256.01,-0.195,-0.015
256.02,-0.215,-0.015
256.02,-0.215,-0.02
256.02,-0.215,-0.015
256.02,-0.205,-0.025
256.03,-0.21,-0.02
256.03,-0.23,-0.03
256.03,-0.23,-0.045
256.04,-0.24,-0.04
256.04,-0.22,-0.03
256.04,-0.205,-0.035
256.04,-0.21,-0.025
256.05,-0.23,-0.05
256.05,-0.23,-0.045
256.05,-0.225,-0.035
256.06,-0.225,-0.04
256.06,-0.22,-0.03
256.06,-0.225,-0.035
256.06,-0.225,-0.045
256.07,-0.235,-0.05
256.07,-0.235,-0.035
256.07,-0.22,-0.03
256.07,-0.22,-0.035
256.08,-0.22,-0.055
256.08,-0.24,-0.04
256.08,-0.255,-0.05
256.09,-0.26,-0.055
256.09,-0.255,-0.035
256.09,-0.25,-0.045
256.09,-0.245,-0.05
256.1,-0.255,-0.065
256.1,-0.25,-0.055
256.1,-0.24,-0.05
256.11,-0.24,-0.035
256.11,-0.245,-0.045
256.11,-0.245,-0.055
256.11,-0.24,-0.08
256.12,-0.265,-0.07
256.12,-0.255,-0.065
256.12,-0.245,-0.06
256.12,-0.245,-0.055
256.13,-0.235,-0.07
256.13,-0.255,-0.085
256.13,-0.26,-0.075
256.14,-0.27,-0.085
256.14,-0.26,-0.08
256.14,-0.255,-0.08
256.14,-0.265,-0.09
256.15,-0.25,-0.11
256.15,-0.275,-0.115
256.15,-0.26,-0.105
256.16,-0.255,-0.1
256.16,-0.25,-0.105
256.16,-0.26,-0.11
256.16,-0.265,-0.135
256.17,-0.275,-0.135
256.17,-0.275,-0.13
256.17,-0.265,-0.12
256.17,-0.245,-0.125
256.18,-0.255,-0.135
256.18,-0.27,-0.155
256.18,-0.28,-0.16
256.19,-0.295,-0.155
256.19,-0.285,-0.145
256.19,-0.29,-0.145
256.19,-0.285,-0.16
256.2,-0.29,-0.155
256.2,-0.28,-0.17
256.2,-0.285,-0.175
256.21,-0.265,-0.165
256.21,-0.27,-0.165
256.21,-0.27,-0.17
256.21,-0.27,-0.185
256.22,-0.285,-0.2
256.22,-0.285,-0.18
256.22,-0.275,-0.17
256.23,-0.27,-0.175
256.23,-0.275,-0.185
256.23,-0.285,-0.2
256.23,-0.29,-0.205
256.24,-0.29,-0.2
256.24,-0.285,-0.195
256.24,-0.275,-0.2
256.24,-0.29,-0.215
256.25,-0.3,-0.2
256.25,-0.31,-0.21
256.25,-0.32,-0.21
256.26,-0.295,-0.2
256.26,-0.29,-0.195
256.26,-0.28,-0.21
256.26,-0.295,-0.22
256.27,-0.32,-0.225
256.27,-0.315,-0.215
256.27,-0.305,-0.205
256.27,-0.29,-0.21
256.28,-0.3,-0.21
256.28,-0.29,-0.225
256.28,-0.305,-0.235
256.29,-0.295,-0.23
256.29,-0.285,-0.22
256.29,-0.285,-0.215
256.29,-0.285,-0.215
256.3,-0.28,-0.24
256.3,-0.275,-0.225
256.3,-0.27,-0.23
256.31,-0.28,-0.215
256.31,-0.275,-0.22
256.31,-0.275,-0.22
256.31,-0.285,-0.24
256.32,-0.31,-0.235
256.32,-0.295,-0.23
256.32,-0.3,-0.215
256.32,-0.29,-0.225
256.33,-0.295,-0.225
256.33,-0.295,-0.235
256.33,-0.305,-0.24
256.34,-0.3,-0.235
256.34,-0.31,-0.23
256.34,-0.285,-0.235
256.34,-0.275,-0.225
256.35,-0.265,-0.225
256.35,-0.265,-0.24
256.35,-0.27,-0.23
256.36,-0.26,-0.225
256.36,-0.25,-0.235
256.36,-0.255,-0.225
256.36,-0.26,-0.235
256.37,-0.265,-0.24
256.37,-0.27,-0.23
256.37,-0.275,-0.215
256.38,-0.255,-0.215
256.38,-0.26,-0.22
256.38,-0.25,-0.225
256.38,-0.27,-0.22
256.39,-0.265,-0.205
256.39,-0.25,-0.19
256.39,-0.24,-0.14
256.39,-0.205,0
256.4,-0.195,0.315
256.4,-0.165,0.665
256.4,-0.115,0.735
256.41,-0.04,0.53
256.41,0.135,0.31
256.41,0.48,0.21
256.41,0.795,0.18
256.42,0.815,0.15
256.42,0.575,0.12
256.42,0.3,0.075
256.42,0.185,0.03
256.43,0.18,-0.03
256.43,0.205,-0.12
256.43,0.205,-0.24
256.44,0.215,-0.37
256.44,0.22,-0.55
256.44,0.225,-0.74
256.44,0.22,-0.98
256.45,0.23,-1.21
256.45,0.22,-1.465
256.45,0.235,-1.72
256.46,0.24,-1.95
256.46,0.235,-2.125
256.46,0.225,-2.28
256.46,0.22,-2.445
256.47,0.225,-2.555
256.47,0.23,-2.625
256.47,0.235,-2.685
256.48,0.225,-2.77
256.48,0.205,-2.875
256.48,0.175,-2.975
256.48,0.115,-3.035
256.49,0.06,-3.065
256.49,-0.015,-3.065
256.49,-0.045,-3.095
256.49,-0.065,-3.125
256.5,-0.125,-3.145
256.5,-0.205,-3.16
256.5,-0.295,-3.15
256.51,-0.34,-3.14
256.51,-0.355,-3.145
256.51,-0.36,-3.135
256.51,-0.36,-3.14
256.52,-0.355,-3.135
256.52,-0.37,-3.115
256.52,-0.365,-3.08
256.52,-0.385,-3.055
256.53,-0.385,-2.985
256.53,-0.4,-2.915
256.53,-0.415,-2.805
256.54,-0.415,-2.67
256.54,-0.415,-2.515
256.54,-0.405,-2.355
256.54,-0.39,-2.145
256.55,-0.385,-1.925
256.55,-0.365,-1.705
256.55,-0.35,-1.46
256.56,-0.36,-1.245
256.56,-0.37,-1.04
256.56,-0.37,-0.82
256.56,-0.375,-0.62
256.57,-0.375,-0.445
256.57,-0.395,-0.27
256.57,-0.39,-0.11
256.57,-0.38,0.025
256.58,-0.38,0.16
256.58,-0.39,0.275
256.58,-0.395,0.395
256.59,-0.39,0.49
256.59,-0.37,0.57
256.59,-0.345,0.62
256.59,-0.335,0.67
256.6,-0.335,0.695
256.6,-0.35,0.725
256.6,-0.35,0.75
256.61,-0.37,0.8
256.61,-0.375,0.82
256.61,-0.365,0.84
256.61,-0.375,0.85
256.62,-0.375,0.875
256.62,-0.365,0.915
256.62,-0.36,0.94
256.62,-0.365,0.96
256.63,-0.37,0.975
256.63,-0.365,0.99
256.63,-0.375,1
256.64,-0.365,1.03
256.64,-0.35,1.065
256.64,-0.35,1.085
256.64,-0.37,1.095
256.65,-0.36,1.115
256.65,-0.365,1.145
256.65,-0.37,1.185
256.66,-0.36,1.225
256.66,-0.36,1.245
256.66,-0.37,1.28
256.66,-0.385,1.305
256.67,-0.4,1.335
256.67,-0.39,1.365
256.67,-0.38,1.4
256.67,-0.365,1.435
256.68,-0.35,1.47
256.68,-0.36,1.49
256.68,-0.37,1.525
256.69,-0.36,1.555
256.69,-0.345,1.605
256.69,-0.335,1.63
256.69,-0.325,1.655
256.7,-0.34,1.665
256.7,-0.34,1.71
256.7,-0.325,1.73
256.71,-0.3,1.775
256.71,-0.275,1.795
256.71,-0.265,1.8
256.71,-0.275,1.815
256.72,-0.295,1.825
256.72,-0.3,1.845
256.72,-0.285,1.86
256.73,-0.25,1.865
256.73,-0.23,1.865
256.73,-0.2,1.85
256.73,-0.185,1.84
256.74,-0.16,1.845
256.74,-0.16,1.83
256.74,-0.15,1.815
256.74,-0.165,1.785
256.75,-0.165,1.75
256.75,-0.175,1.73
256.75,-0.14,1.69
256.76,-0.125,1.665
256.76,-0.1,1.61
256.76,-0.085,1.565
256.76,-0.075,1.52
256.77,-0.09,1.465
256.77,-0.08,1.405
256.77,-0.08,1.36
256.77,-0.065,1.295
256.78,-0.06,1.24
256.78,-0.04,1.16
256.78,-0.045,1.1
256.79,-0.03,1.035
256.79,-0.025,0.99
256.79,-0.04,0.935
256.79,-0.04,0.855
256.8,-0.045,0.785
256.8,-0.055,0.72
256.8,-0.04,0.67
256.81,-0.035,0.63
256.81,-0.02,0.58
256.81,-0.015,0.52
256.81,-0.035,0.47
256.82,-0.055,0.42
256.82,-0.055,0.375
256.82,-0.06,0.36
256.82,-0.055,0.315
256.83,-0.055,0.285
256.83,-0.075,0.24
256.83,-0.08,0.205
256.84,-0.09,0.19
256.84,-0.1,0.18
256.84,-0.105,0.14
256.84,-0.115,0.13
256.85,-0.115,0.1
256.85,-0.11,0.075
256.85,-0.105,0.06
256.86,-0.09,0.07
256.86,-0.09,0.04
256.86,-0.095,0.035
256.86,-0.14,0.01
256.87,-0.17,0
256.87,-0.17,0
256.87,-0.155,0.01
256.88,-0.14,0.01
256.88,-0.13,0
256.88,-0.135,-0.01
256.88,-0.155,-0.025
256.89,-0.135,-0.005
256.89,-0.14,0
256.89,-0.13,-0.015
256.89,-0.14,-0.03
256.9,-0.16,-0.04
256.9,-0.18,-0.04
256.9,-0.18,-0.025
256.91,-0.17,-0.02
256.91,-0.155,-0.035
256.91,-0.165,-0.025
256.91,-0.16,-0.035
256.92,-0.155,-0.035
256.92,-0.15,-0.04
256.92,-0.125,-0.015
256.92,-0.12,-0.025
256.93,-0.125,-0.035
256.93,-0.14,-0.045
256.93,-0.165,-0.045
256.94,-0.16,-0.045
256.94,-0.16,-0.015
256.94,-0.155,-0.025
256.94,-0.16,-0.03
256.95,-0.165,-0.04
256.95,-0.18,-0.045
256.95,-0.17,-0.035
256.96,-0.135,-0.04
256.96,-0.145,-0.05
256.96,-0.15,-0.045
256.96,-0.16,-0.05
256.97,-0.18,-0.065
256.97,-0.19,-0.06
256.97,-0.18,-0.04
256.98,-0.175,-0.045
256.98,-0.17,-0.06
256.98,-0.18,-0.065
256.98,-0.185,-0.07
256.99,-0.175,-0.075
256.99,-0.17,-0.06
256.99,-0.17,-0.06
256.99,-0.175,-0.085
257,-0.165,-0.09
257,-0.195,-0.09
257,-0.185,-0.09
257.01,-0.185,-0.095
257.01,-0.175,-0.095
257.01,-0.18,-0.105
257.01,-0.19,-0.12
257.02,-0.2,-0.105
257.02,-0.205,-0.11
257.02,-0.195,-0.105
257.02,-0.195,-0.12
257.03,-0.195,-0.11
257.03,-0.205,-0.13
257.03,-0.22,-0.14
257.04,-0.2,-0.13
257.04,-0.205,-0.125
257.04,-0.19,-0.13
257.04,-0.2,-0.145
257.05,-0.205,-0.155
257.05,-0.22,-0.155
257.05,-0.205,-0.16
257.06,-0.2,-0.15
257.06,-0.195,-0.16
257.06,-0.215,-0.165
257.06,-0.22,-0.185
257.07,-0.22,-0.185
257.07,-0.23,-0.165
257.07,-0.21,-0.155
257.07,-0.21,-0.17
257.08,-0.2,-0.18
257.08,-0.22,-0.2
257.08,-0.22,-0.205
257.09,-0.22,-0.185
257.09,-0.21,-0.175
257.09,-0.205,-0.175
257.09,-0.205,-0.19
257.1,-0.21,-0.195
257.1,-0.23,-0.2
257.1,-0.225,-0.19
257.11,-0.22,-0.18
257.11,-0.215,-0.185
257.11,-0.215,-0.19
257.11,-0.23,-0.205
257.12,-0.235,-0.215
257.12,-0.23,-0.205
257.12,-0.22,-0.185
257.12,-0.22,-0.195
257.13,-0.215,-0.195
257.13,-0.22,-0.21
257.13,-0.245,-0.215
257.14,-0.235,-0.19
257.14,-0.23,-0.195
257.14,-0.21,-0.2
257.14,-0.215,-0.2
257.15,-0.22,-0.215
257.15,-0.24,-0.21
257.15,-0.235,-0.205
257.16,-0.22,-0.19
257.16,-0.225,-0.2
257.16,-0.215,-0.21
257.16,-0.225,-0.205
257.17,-0.24,-0.22
257.17,-0.235,-0.21
257.17,-0.22,-0.185
257.17,-0.21,-0.2
257.18,-0.22,-0.2
257.18,-0.225,-0.21
257.18,-0.25,-0.215
257.19,-0.235,-0.2
257.19,-0.23,-0.195
257.19,-0.225,-0.2
257.19,-0.22,-0.205
257.2,-0.24,-0.21
257.2,-0.24,-0.22
257.2,-0.24,-0.21
257.21,-0.22,-0.195
257.21,-0.215,-0.195
257.21,-0.215,-0.2
257.21,-0.215,-0.21
257.22,-0.23,-0.215
257.22,-0.225,-0.205
257.22,-0.235,-0.205
257.23,-0.215,-0.195
257.23,-0.21,-0.215
257.23,-0.225,-0.205
257.23,-0.24,-0.21
257.24,-0.235,-0.2
257.24,-0.21,-0.18
257.24,-0.195,-0.185
257.24,-0.195,-0.175
257.25,-0.215,-0.155
257.25,-0.21,-0.08
257.25,-0.195,0.1
257.26,-0.165,0.46
257.26,-0.125,0.755
257.26,-0.08,0.75
257.26,-0.015,0.495
257.27,0.17,0.315
257.27,0.515,0.245
257.27,0.835,0.23
257.27,0.845,0.205
257.28,0.58,0.17
257.28,0.29,0.11
257.28,0.195,0.075
257.29,0.19,0.005
257.29,0.225,-0.1
257.29,0.255,-0.27
257.29,0.25,-0.47
257.3,0.255,-0.705
257.3,0.27,-0.945
257.3,0.27,-1.195
257.31,0.305,-1.445
257.31,0.315,-1.705
257.31,0.295,-1.93
257.31,0.285,-2.125
257.32,0.275,-2.3
257.32,0.275,-2.41
257.32,0.295,-2.5
257.32,0.28,-2.605
257.33,0.265,-2.725
257.33,0.235,-2.85
257.33,0.19,-2.94
257.34,0.135,-2.985
257.34,0.065,-2.995
257.34,0,-3.03
257.34,-0.05,-3.065
257.35,-0.105,-3.095
257.35,-0.2,-3.125
257.35,-0.29,-3.115
257.36,-0.35,-3.115
257.36,-0.36,-3.115
257.36,-0.345,-3.125
257.36,-0.31,-3.12
257.37,-0.31,-3.115
257.37,-0.295,-3.075
257.37,-0.315,-3.01
257.38,-0.33,-2.94
257.38,-0.355,-2.87
257.38,-0.38,-2.755
257.38,-0.39,-2.615
257.39,-0.385,-2.475
257.39,-0.345,-2.275
257.39,-0.33,-2.065
257.39,-0.31,-1.83
257.4,-0.325,-1.6
257.4,-0.335,-1.38
257.4,-0.325,-1.125
257.41,-0.315,-0.9
257.41,-0.315,-0.69
257.41,-0.33,-0.49
257.41,-0.355,-0.34
257.42,-0.385,-0.16
257.42,-0.405,-0.015
257.42,-0.41,0.14
257.42,-0.395,0.28
257.43,-0.395,0.4
257.43,-0.4,0.47
257.43,-0.405,0.535
257.44,-0.415,0.58
257.44,-0.39,0.635
257.44,-0.385,0.68
257.44,-0.385,0.695
257.45,-0.395,0.705
257.45,-0.41,0.73
257.45,-0.41,0.765
257.46,-0.4,0.805
257.46,-0.395,0.83
257.46,-0.405,0.845
257.46,-0.405,0.86
257.47,-0.42,0.88
257.47,-0.42,0.915
257.47,-0.425,0.94
257.48,-0.41,0.955
257.48,-0.415,0.975
257.48,-0.435,0.995
257.48,-0.435,1.02
257.49,-0.44,1.05
257.49,-0.435,1.09
257.49,-0.43,1.12
257.49,-0.44,1.14
257.5,-0.45,1.155
257.5,-0.46,1.19
257.5,-0.46,1.23
257.51,-0.46,1.275
257.51,-0.45,1.3
257.51,-0.45,1.325
257.51,-0.465,1.35
257.52,-0.465,1.39
257.52,-0.45,1.435
257.52,-0.45,1.475
257.52,-0.445,1.51
257.53,-0.445,1.525
257.53,-0.445,1.56
257.53,-0.45,1.585
257.54,-0.445,1.635
257.54,-0.42,1.67
257.54,-0.41,1.7
257.54,-0.405,1.725
257.55,-0.41,1.745
257.55,-0.405,1.765
257.55,-0.385,1.79
257.56,-0.385,1.83
257.56,-0.36,1.83
257.56,-0.325,1.835
257.56,-0.335,1.83
257.57,-0.325,1.84
257.57,-0.32,1.825
257.57,-0.3,1.835
257.57,-0.275,1.82
257.58,-0.26,1.79
257.58,-0.255,1.755
257.58,-0.245,1.715
257.59,-0.225,1.69
257.59,-0.21,1.66
257.59,-0.185,1.615
257.59,-0.18,1.58
257.6,-0.175,1.51
257.6,-0.165,1.46
257.6,-0.15,1.42
257.61,-0.13,1.37
257.61,-0.12,1.3
257.61,-0.11,1.235
257.61,-0.11,1.155
257.62,-0.11,1.09
257.62,-0.085,1.045
257.62,-0.075,0.985
257.62,-0.075,0.925
257.63,-0.07,0.84
257.63,-0.07,0.775
257.63,-0.08,0.72
257.64,-0.075,0.67
257.64,-0.065,0.625
257.64,-0.06,0.575
257.64,-0.07,0.515
257.65,-0.075,0.465
257.65,-0.095,0.425
257.65,-0.09,0.4
257.66,-0.1,0.37
257.66,-0.09,0.325
257.66,-0.095,0.285
257.66,-0.115,0.25
257.67,-0.13,0.23
257.67,-0.13,0.22
257.67,-0.135,0.195
257.67,-0.12,0.17
257.68,-0.145,0.155
257.68,-0.15,0.12
257.68,-0.165,0.105
257.69,-0.16,0.105
257.69,-0.17,0.1
257.69,-0.15,0.09
257.69,-0.165,0.08
257.7,-0.175,0.065
257.7,-0.18,0.05
257.7,-0.19,0.06
257.71,-0.18,0.065
257.71,-0.175,0.06
257.71,-0.175,0.05
257.71,-0.19,0.035
257.72,-0.2,0.035
257.72,-0.205,0.035
257.72,-0.2,0.05
257.73,-0.18,0.055
257.73,-0.18,0.035
257.73,-0.195,0.035
257.73,-0.21,0.03
257.74,-0.19,0.04
257.74,-0.19,0.045
257.74,-0.185,0.055
257.74,-0.185,0.04
257.75,-0.2,0.035
257.75,-0.21,0.035
257.75,-0.2,0.04
257.76,-0.195,0.055
257.76,-0.18,0.06
257.76,-0.19,0.055
257.76,-0.19,0.045
257.77,-0.21,0.03
257.77,-0.215,0.04
257.77,-0.205,0.045
257.77,-0.195,0.045
257.78,-0.18,0.04
257.78,-0.19,0.03
257.78,-0.2,0.035
257.79,-0.2,0.04
257.79,-0.195,0.035
257.79,-0.185,0.025
257.79,-0.2,0.03
257.8,-0.21,0.02
257.8,-0.215,0.015
257.8,-0.22,0.025
257.81,-0.205,0.015
257.81,-0.2,0.03
257.81,-0.21,0.02
257.81,-0.21,0
257.82,-0.22,-0.01
257.82,-0.22,-0.005
257.82,-0.21,0.005
257.82,-0.215,-0.015
257.83,-0.22,-0.025
257.83,-0.225,-0.035
257.83,-0.24,-0.035
257.84,-0.235,-0.045
257.84,-0.225,-0.03
257.84,-0.22,-0.045
257.84,-0.22,-0.055
257.85,-0.22,-0.055
257.85,-0.25,-0.06
257.85,-0.235,-0.065
257.86,-0.24,-0.05
257.86,-0.23,-0.06
257.86,-0.235,-0.07
257.86,-0.245,-0.085
257.87,-0.26,-0.09
257.87,-0.25,-0.09
257.87,-0.245,-0.08
257.88,-0.24,-0.095
257.88,-0.235,-0.1
257.88,-0.26,-0.11
257.88,-0.265,-0.125
257.89,-0.255,-0.11
257.89,-0.25,-0.105
257.89,-0.245,-0.11
257.89,-0.25,-0.115
257.9,-0.255,-0.13
257.9,-0.265,-0.14
257.9,-0.26,-0.12
257.91,-0.245,-0.12
257.91,-0.245,-0.13
257.91,-0.245,-0.135
257.91,-0.255,-0.14
257.92,-0.26,-0.15
257.92,-0.255,-0.145
257.92,-0.25,-0.135
257.92,-0.245,-0.14
257.93,-0.26,-0.135
257.93,-0.275,-0.15
257.93,-0.29,-0.155
257.94,-0.265,-0.145
257.94,-0.275,-0.15
257.94,-0.255,-0.155
257.94,-0.25,-0.145
257.95,-0.255,-0.155
257.95,-0.27,-0.155
257.95,-0.27,-0.15
257.96,-0.27,-0.145
257.96,-0.255,-0.15
257.96,-0.25,-0.15
257.96,-0.27,-0.16
257.97,-0.27,-0.165
257.97,-0.26,-0.15
257.97,-0.245,-0.155
257.98,-0.25,-0.15
257.98,-0.26,-0.155
257.98,-0.255,-0.16
257.98,-0.26,-0.17
257.99,-0.265,-0.17
257.99,-0.24,-0.145
257.99,-0.235,-0.155
257.99,-0.24,-0.15
258,-0.245,-0.165
258,-0.265,-0.16
258,-0.265,-0.155
258.01,-0.25,-0.155
258.01,-0.235,-0.15
258.01,-0.245,-0.165
258.01,-0.25,-0.165
258.02,-0.255,-0.17
258.02,-0.25,-0.165
258.02,-0.25,-0.15
258.02,-0.235,-0.16
258.03,-0.245,-0.16
258.03,-0.25,-0.165
258.03,-0.25,-0.165
258.04,-0.24,-0.155
258.04,-0.235,-0.155
258.04,-0.23,-0.15
258.04,-0.235,-0.145
258.05,-0.23,-0.13
258.05,-0.22,-0.125
258.05,-0.215,-0.035
258.06,-0.195,0.18
258.06,-0.165,0.565
258.06,-0.14,0.83
258.06,-0.09,0.71
258.07,-0.005,0.46
258.07,0.26,0.285
258.07,0.645,0.26
258.07,0.835,0.24
258.08,0.675,0.195
258.08,0.365,0.145
258.08,0.18,0.1
258.09,0.155,0.03
258.09,0.195,-0.065
258.09,0.23,-0.205
258.09,0.225,-0.405
258.1,0.22,-0.64
258.1,0.22,-0.885
258.1,0.245,-1.145
258.11,0.27,-1.39
258.11,0.285,-1.66
258.11,0.27,-1.895
258.11,0.265,-2.105
258.12,0.25,-2.255
258.12,0.26,-2.385
258.12,0.28,-2.465
258.12,0.275,-2.545
258.13,0.255,-2.67
258.13,0.24,-2.8
258.13,0.215,-2.89
258.14,0.175,-2.955
258.14,0.12,-2.98
258.14,0.07,-3
258.14,0.025,-3.03
258.15,-0.025,-3.055
258.15,-0.1,-3.07
258.15,-0.185,-3.08
258.16,-0.26,-3.075
258.16,-0.28,-3.08
258.16,-0.275,-3.085
258.16,-0.265,-3.085
258.17,-0.26,-3.085
258.17,-0.25,-3.06
258.17,-0.25,-3.005
258.17,-0.265,-2.96
258.18,-0.295,-2.88
258.18,-0.32,-2.79
258.18,-0.34,-2.65
258.19,-0.345,-2.47
258.19,-0.315,-2.25
258.19,-0.325,-2.005
258.19,-0.32,-1.76
258.2,-0.335,-1.525
258.2,-0.36,-1.28
258.2,-0.355,-1.055
258.21,-0.345,-0.825
258.21,-0.325,-0.595
258.21,-0.35,-0.4
258.21,-0.365,-0.23
258.22,-0.395,-0.05
258.22,-0.39,0.105
258.22,-0.4,0.27
258.23,-0.4,0.42
258.23,-0.395,0.535
258.23,-0.385,0.595
258.23,-0.4,0.65
258.24,-0.395,0.695
258.24,-0.4,0.75
258.24,-0.39,0.775
258.24,-0.395,0.8
258.25,-0.4,0.825
258.25,-0.415,0.855
258.25,-0.4,0.89
258.26,-0.405,0.92
258.26,-0.395,0.96
258.26,-0.41,0.975
258.26,-0.41,0.99
258.27,-0.42,1.015
258.27,-0.415,1.05
258.27,-0.405,1.095
258.27,-0.42,1.11
258.28,-0.42,1.135
258.28,-0.425,1.155
258.28,-0.44,1.19
258.29,-0.43,1.25
258.29,-0.425,1.28
258.29,-0.42,1.315
258.29,-0.415,1.355
258.3,-0.425,1.38
258.3,-0.43,1.42
258.3,-0.425,1.455
258.31,-0.415,1.515
258.31,-0.405,1.54
258.31,-0.415,1.59
258.31,-0.425,1.62
258.32,-0.425,1.65
258.32,-0.405,1.7
258.32,-0.395,1.74
258.32,-0.37,1.765
258.33,-0.37,1.805
258.33,-0.375,1.82
258.33,-0.37,1.845
258.34,-0.36,1.89
258.34,-0.34,1.92
258.34,-0.33,1.945
258.34,-0.32,1.945
258.35,-0.325,1.955
258.35,-0.32,1.965
258.35,-0.31,1.985
258.36,-0.28,1.985
258.36,-0.27,1.97
258.36,-0.25,1.96
258.36,-0.25,1.935
258.37,-0.24,1.91
258.37,-0.23,1.9
258.37,-0.21,1.865
258.38,-0.195,1.825
258.38,-0.185,1.77
258.38,-0.185,1.705
258.38,-0.19,1.65
258.39,-0.17,1.605
258.39,-0.16,1.55
258.39,-0.145,1.475
258.39,-0.135,1.405
258.4,-0.13,1.325
258.4,-0.13,1.265
258.4,-0.115,1.2
258.41,-0.105,1.14
258.41,-0.1,1.06
258.41,-0.105,0.985
258.41,-0.1,0.92
258.42,-0.125,0.84
258.42,-0.115,0.8
258.42,-0.1,0.74
258.42,-0.1,0.675
258.43,-0.095,0.62
258.43,-0.11,0.55
258.43,-0.115,0.49
258.44,-0.11,0.46
258.44,-0.11,0.43
258.44,-0.095,0.39
258.44,-0.12,0.335
258.45,-0.12,0.305
258.45,-0.13,0.27
258.45,-0.14,0.235
258.46,-0.13,0.225
258.46,-0.13,0.185
258.46,-0.14,0.165
258.46,-0.145,0.14
258.47,-0.165,0.115
258.47,-0.17,0.115
258.47,-0.17,0.11
258.48,-0.16,0.1
258.48,-0.17,0.09
258.48,-0.16,0.055
258.48,-0.19,0.055
258.49,-0.19,0.055
258.49,-0.185,0.055
258.49,-0.19,0.045
258.49,-0.19,0.03
258.5,-0.2,0.015
258.5,-0.215,0.035
258.5,-0.19,0.03
258.51,-0.19,0.03
258.51,-0.185,0.025
258.51,-0.175,0.03
258.51,-0.18,0.015
258.52,-0.185,0.015
258.52,-0.185,0.015
258.52,-0.17,0.02
258.52,-0.17,0.025
258.53,-0.17,0.02
258.53,-0.18,0.015
258.53,-0.2,0.025
258.54,-0.195,0.015
258.54,-0.18,0.025
258.54,-0.185,0.025
258.54,-0.195,0.015
258.55,-0.195,0.01
258.55,-0.215,0.005
258.55,-0.205,0.015
258.56,-0.205,0.025
258.56,-0.175,0.025
258.56,-0.18,0.005
258.56,-0.195,0
258.57,-0.22,0.005
258.57,-0.22,-0.005
258.57,-0.22,0.015
258.57,-0.21,0.015
258.58,-0.225,0
258.58,-0.215,-0.01
258.58,-0.23,-0.015
258.59,-0.215,-0.005
258.59,-0.21,-0.01
258.59,-0.21,-0.015
258.59,-0.2,-0.015
258.6,-0.2,-0.03
258.6,-0.215,-0.035
258.6,-0.215,-0.045
258.61,-0.21,-0.03
258.61,-0.2,-0.03
258.61,-0.215,-0.03
258.61,-0.215,-0.055
258.62,-0.23,-0.055
258.62,-0.22,-0.055
258.62,-0.215,-0.05
258.62,-0.21,-0.065
258.63,-0.22,-0.075
258.63,-0.22,-0.085
258.63,-0.235,-0.095
258.64,-0.235,-0.085
258.64,-0.225,-0.08
258.64,-0.21,-0.085
258.64,-0.225,-0.09
258.65,-0.235,-0.105
258.65,-0.22,-0.115
258.65,-0.21,-0.11
258.66,-0.205,-0.11
258.66,-0.21,-0.115
258.66,-0.22,-0.13
258.66,-0.255,-0.14
258.67,-0.26,-0.135
258.67,-0.255,-0.135
258.67,-0.24,-0.125
258.67,-0.23,-0.125
258.68,-0.215,-0.125
258.68,-0.22,-0.14
258.68,-0.245,-0.145
258.69,-0.215,-0.145
258.69,-0.21,-0.14
258.69,-0.21,-0.14
258.69,-0.225,-0.145
258.7,-0.235,-0.16
258.7,-0.25,-0.16
258.7,-0.265,-0.155
258.71,-0.26,-0.15
258.71,-0.235,-0.155
258.71,-0.24,-0.16
258.71,-0.25,-0.17
258.72,-0.25,-0.17
258.72,-0.255,-0.165
258.72,-0.235,-0.15
258.73,-0.23,-0.155
258.73,-0.23,-0.165
258.73,-0.24,-0.165
258.73,-0.24,-0.18
258.74,-0.245,-0.17
258.74,-0.24,-0.155
258.74,-0.25,-0.155
258.74,-0.245,-0.165
258.75,-0.255,-0.18
258.75,-0.245,-0.165
258.75,-0.22,-0.17
258.76,-0.21,-0.145
258.76,-0.205,-0.16
258.76,-0.215,-0.17
258.76,-0.225,-0.185
258.77,-0.24,-0.185
258.77,-0.245,-0.18
258.77,-0.24,-0.155
258.77,-0.23,-0.165
258.78,-0.215,-0.175
258.78,-0.22,-0.18
258.78,-0.215,-0.175
258.79,-0.21,-0.185
258.79,-0.205,-0.18
258.79,-0.21,-0.175
258.79,-0.215,-0.175
258.8,-0.22,-0.19
258.8,-0.23,-0.175
258.8,-0.225,-0.185
258.81,-0.205,-0.17
258.81,-0.215,-0.17
258.81,-0.21,-0.17
258.81,-0.22,-0.19
258.82,-0.22,-0.17
258.82,-0.22,-0.165
258.82,-0.21,-0.165
258.82,-0.185,-0.155
258.83,-0.175,-0.155
258.83,-0.19,-0.165
258.83,-0.195,-0.13
258.84,-0.185,-0.055
258.84,-0.165,0.15
258.84,-0.14,0.53
258.84,-0.125,0.85
258.85,-0.085,0.82
258.85,-0.02,0.535
258.85,0.21,0.325
258.86,0.575,0.275
258.86,0.865,0.24
258.86,0.805,0.195
258.86,0.505,0.14
258.87,0.26,0.095
258.87,0.185,0.045
258.87,0.22,-0.025
258.88,0.255,-0.14
258.88,0.255,-0.285
258.88,0.245,-0.485
258.88,0.245,-0.72
258.89,0.27,-0.94
258.89,0.27,-1.165
258.89,0.285,-1.425
258.89,0.28,-1.685
258.9,0.275,-1.915
258.9,0.265,-2.08
258.9,0.255,-2.24
258.91,0.27,-2.365
258.91,0.265,-2.5
258.91,0.265,-2.57
258.91,0.255,-2.665
258.92,0.23,-2.775
258.92,0.255,-2.865
258.92,0.255,-2.94
258.92,0.22,-2.975
258.93,0.14,-3
258.93,0.055,-3.025
258.93,-0.005,-3.06
258.94,-0.05,-3.065
258.94,-0.11,-3.07
258.94,-0.19,-3.07
258.94,-0.275,-3.08
258.95,-0.355,-3.095
258.95,-0.39,-3.095
258.95,-0.375,-3.085
258.96,-0.34,-3.065
258.96,-0.32,-3.045
258.96,-0.32,-3.045
258.96,-0.34,-3.015
258.97,-0.365,-2.96
258.97,-0.38,-2.87
258.97,-0.375,-2.745
258.98,-0.375,-2.63
258.98,-0.38,-2.475
258.98,-0.375,-2.34
258.98,-0.375,-2.145
258.99,-0.36,-1.91
258.99,-0.335,-1.66
258.99,-0.33,-1.43
258.99,-0.345,-1.21
259,-0.345,-1.01
259,-0.35,-0.805
259,-0.335,-0.58
259.01,-0.34,-0.39
259.01,-0.36,-0.23
259.01,-0.365,-0.08
259.01,-0.36,0.035
259.02,-0.35,0.185
259.02,-0.32,0.325
259.02,-0.3,0.455
259.02,-0.29,0.535
259.03,-0.3,0.6
259.03,-0.33,0.645
259.03,-0.35,0.69
259.04,-0.345,0.735
259.04,-0.325,0.775
259.04,-0.3,0.8
259.04,-0.29,0.815
259.05,-0.3,0.85
259.05,-0.305,0.875
259.05,-0.31,0.915
259.06,-0.315,0.94
259.06,-0.3,0.965
259.06,-0.315,0.985
259.06,-0.33,1
259.07,-0.325,1.03
259.07,-0.33,1.065
259.07,-0.31,1.095
259.07,-0.3,1.12
259.08,-0.31,1.14
259.08,-0.32,1.165
259.08,-0.34,1.19
259.09,-0.345,1.235
259.09,-0.315,1.26
259.09,-0.3,1.3
259.09,-0.275,1.32
259.1,-0.25,1.345
259.1,-0.255,1.385
259.1,-0.28,1.41
259.11,-0.295,1.455
259.11,-0.29,1.485
259.11,-0.29,1.505
259.11,-0.275,1.53
259.12,-0.28,1.57
259.12,-0.295,1.605
259.12,-0.29,1.645
259.12,-0.27,1.68
259.13,-0.225,1.695
259.13,-0.2,1.725
259.13,-0.195,1.735
259.14,-0.205,1.775
259.14,-0.2,1.82
259.14,-0.21,1.815
259.14,-0.205,1.84
259.15,-0.195,1.84
259.15,-0.185,1.845
259.15,-0.175,1.88
259.16,-0.15,1.88
259.16,-0.11,1.88
259.16,-0.095,1.875
259.16,-0.1,1.86
259.17,-0.1,1.845
259.17,-0.095,1.845
259.17,-0.095,1.82
259.17,-0.08,1.79
259.18,-0.07,1.755
259.18,-0.06,1.715
259.18,-0.075,1.665
259.19,-0.06,1.625
259.19,-0.035,1.58
259.19,-0.03,1.52
259.19,-0.01,1.465
259.2,-0.005,1.395
259.2,-0.015,1.345
259.2,-0.015,1.285
259.21,-0.005,1.225
259.21,0.015,1.165
259.21,0.015,1.08
259.21,0.015,1.03
259.22,-0.005,0.965
259.22,0,0.915
259.22,0.01,0.865
259.23,0.04,0.805
259.23,0.045,0.74
259.23,0.025,0.67
259.23,-0.015,0.625
259.24,-0.035,0.575
259.24,-0.005,0.545
259.24,0.025,0.475
259.24,0.03,0.435
259.25,0.015,0.385
259.25,-0.02,0.34
259.25,-0.025,0.315
259.26,-0.035,0.29
259.26,-0.03,0.265
259.26,-0.045,0.225
259.26,-0.065,0.205
259.27,-0.09,0.175
259.27,-0.075,0.165
259.27,-0.065,0.16
259.27,-0.045,0.15
259.28,-0.04,0.11
259.28,-0.045,0.1
259.28,-0.065,0.09
259.29,-0.07,0.075
259.29,-0.065,0.075
259.29,-0.07,0.055
259.29,-0.08,0.055
259.3,-0.095,0.035
259.3,-0.115,0.03
259.3,-0.11,0.025
259.31,-0.09,0.035
259.31,-0.09,0.04
259.31,-0.09,0.015
259.31,-0.095,0.02
259.32,-0.115,0.01
259.32,-0.115,0.005
259.32,-0.11,0.015
259.32,-0.105,0.025
259.33,-0.115,0.015
259.33,-0.135,0
259.33,-0.15,0.005
259.34,-0.14,0.005
259.34,-0.13,0.025
259.34,-0.125,0.015
259.34,-0.13,0.01
259.35,-0.12,0
259.35,-0.13,0.02
259.35,-0.115,0.015
259.36,-0.11,0.025
259.36,-0.1,0.02
259.36,-0.1,0.015
259.36,-0.125,0.005
259.37,-0.13,0.01
259.37,-0.135,0.02
259.37,-0.13,0.03
259.38,-0.115,0.01
259.38,-0.12,0.01
259.38,-0.13,0.005
259.38,-0.13,0
259.39,-0.135,0.01
259.39,-0.14,0.01
259.39,-0.13,0.01
259.39,-0.135,0.005
259.4,-0.145,-0.01
259.4,-0.15,-0.015
259.4,-0.16,-0.005
259.41,-0.14,0.015
259.41,-0.135,0.005
259.41,-0.145,-0.005
259.41,-0.155,-0.015
259.42,-0.165,-0.015
259.42,-0.155,-0.02
259.42,-0.17,-0.005
259.42,-0.16,-0.015
259.43,-0.165,-0.02
259.43,-0.17,-0.045
259.43,-0.18,-0.045
259.44,-0.185,-0.035
259.44,-0.18,-0.035
259.44,-0.17,-0.035
259.44,-0.18,-0.055
259.45,-0.18,-0.055
259.45,-0.205,-0.055
259.45,-0.19,-0.06
259.46,-0.185,-0.05
259.46,-0.185,-0.06
259.46,-0.18,-0.065
259.46,-0.175,-0.08
259.47,-0.19,-0.08
259.47,-0.195,-0.085
259.47,-0.2,-0.075
259.48,-0.195,-0.08
259.48,-0.205,-0.095
259.48,-0.205,-0.105
259.48,-0.2,-0.095
259.49,-0.215,-0.1
259.49,-0.205,-0.085
259.49,-0.195,-0.095
259.49,-0.19,-0.105
259.5,-0.21,-0.12
259.5,-0.215,-0.12
259.5,-0.205,-0.105
259.51,-0.195,-0.105
259.51,-0.2,-0.115
259.51,-0.21,-0.125
259.51,-0.21,-0.125
259.52,-0.23,-0.12
259.52,-0.22,-0.12
259.52,-0.21,-0.12
259.52,-0.21,-0.11
259.53,-0.22,-0.12
259.53,-0.235,-0.145
259.53,-0.24,-0.145
259.54,-0.24,-0.135
259.54,-0.225,-0.135
259.54,-0.21,-0.13
259.54,-0.225,-0.135
259.55,-0.235,-0.135
259.55,-0.25,-0.145
259.55,-0.245,-0.14
259.56,-0.235,-0.135
259.56,-0.23,-0.135
259.56,-0.23,-0.14
259.56,-0.215,-0.16
259.57,-0.235,-0.145
259.57,-0.24,-0.14
259.57,-0.235,-0.13
259.57,-0.215,-0.125
259.58,-0.22,-0.14
259.58,-0.23,-0.145
259.58,-0.23,-0.145
259.59,-0.235,-0.13
259.59,-0.24,-0.115
259.59,-0.22,-0.14
259.59,-0.235,-0.145
259.6,-0.24,-0.155
259.6,-0.245,-0.135
259.6,-0.25,-0.135
259.61,-0.24,-0.14
259.61,-0.235,-0.135
259.61,-0.235,-0.145
259.61,-0.25,-0.15
259.62,-0.245,-0.145
259.62,-0.245,-0.145
259.62,-0.245,-0.135
259.62,-0.23,-0.14
259.63,-0.24,-0.155
259.63,-0.235,-0.15
259.63,-0.25,-0.15
259.64,-0.24,-0.135
259.64,-0.235,-0.14
259.64,-0.235,-0.14
259.64,-0.235,-0.14
259.65,-0.24,-0.145
259.65,-0.245,-0.13
259.65,-0.25,-0.12
259.66,-0.235,-0.11
259.66,-0.23,-0.11
259.66,-0.21,-0.08
259.66,-0.225,-0.02
259.67,-0.23,0.16
259.67,-0.205,0.52
259.67,-0.17,0.875
259.67,-0.13,0.935
259.68,-0.075,0.68
259.68,0.035,0.43
259.68,0.325,0.34
259.69,0.67,0.31
259.69,0.785,0.295
259.69,0.61,0.255
259.69,0.315,0.22
259.7,0.16,0.175
259.7,0.125,0.12
259.7,0.17,0.055
259.71,0.195,-0.055
259.71,0.215,-0.215
259.71,0.22,-0.415
259.71,0.235,-0.64
259.72,0.245,-0.865
259.72,0.275,-1.09
259.72,0.295,-1.33
259.73,0.29,-1.57
259.73,0.275,-1.785
259.73,0.245,-1.945
259.73,0.26,-2.135
259.74,0.275,-2.25
259.74,0.29,-2.345
259.74,0.275,-2.46
259.74,0.25,-2.595
259.75,0.225,-2.725
259.75,0.2,-2.84
259.75,0.16,-2.89
259.76,0.11,-2.905
259.76,0.055,-2.955
259.76,0.005,-2.975
259.76,-0.03,-3.005
259.77,-0.105,-3.025
259.77,-0.19,-3.045
259.77,-0.29,-3.03
259.77,-0.33,-3.035
259.78,-0.345,-3.04
259.78,-0.33,-3.05
259.78,-0.325,-3.05
259.79,-0.305,-3.02
259.79,-0.3,-2.98
259.79,-0.315,-2.915
259.79,-0.345,-2.845
259.8,-0.36,-2.73
259.8,-0.39,-2.595
259.8,-0.395,-2.43
259.81,-0.375,-2.25
259.81,-0.365,-2.05
259.81,-0.355,-1.82
259.81,-0.35,-1.59
259.82,-0.37,-1.36
259.82,-0.355,-1.135
259.82,-0.345,-0.905
259.82,-0.345,-0.685
259.83,-0.355,-0.495
259.83,-0.38,-0.335
259.83,-0.4,-0.165
259.84,-0.42,0
259.84,-0.425,0.145
259.84,-0.435,0.28
259.84,-0.425,0.39
259.85,-0.435,0.495
259.85,-0.43,0.555
259.85,-0.44,0.605
259.86,-0.43,0.66
259.86,-0.435,0.695
259.86,-0.445,0.715
259.86,-0.44,0.735
259.87,-0.445,0.775
259.87,-0.44,0.81
259.87,-0.43,0.85
259.88,-0.43,0.875
259.88,-0.43,0.895
259.88,-0.445,0.905
259.88,-0.455,0.935
259.89,-0.45,0.97
259.89,-0.455,1
259.89,-0.45,1.03
259.89,-0.445,1.055
259.9,-0.445,1.065
259.9,-0.47,1.1
259.9,-0.455,1.145
259.91,-0.45,1.175
259.91,-0.45,1.205
259.91,-0.455,1.23
259.91,-0.465,1.26
259.92,-0.475,1.3
259.92,-0.465,1.33
259.92,-0.465,1.375
259.92,-0.45,1.41
259.93,-0.45,1.435
259.93,-0.455,1.465
259.93,-0.46,1.505
259.94,-0.465,1.55
259.94,-0.445,1.6
259.94,-0.44,1.62
259.94,-0.445,1.66
259.95,-0.445,1.685
259.95,-0.435,1.71
259.95,-0.43,1.76
259.96,-0.415,1.795
259.96,-0.4,1.81
259.96,-0.4,1.835
259.96,-0.39,1.85
259.97,-0.4,1.87
259.97,-0.39,1.895
259.97,-0.365,1.92
259.98,-0.345,1.925
259.98,-0.335,1.905
259.98,-0.32,1.9
259.98,-0.32,1.885
259.99,-0.305,1.895
259.99,-0.28,1.87
259.99,-0.26,1.84
259.99,-0.25,1.815
260,-0.24,1.765
260,-0.24,1.73
260,-0.22,1.7
260.01,-0.205,1.65
260.01,-0.18,1.585
260.01,-0.175,1.53
260.01,-0.17,1.46
260.02,-0.16,1.395
260.02,-0.145,1.34
260.02,-0.135,1.295
260.02,-0.12,1.205
260.03,-0.125,1.145
260.03,-0.115,1.08
260.03,-0.145,1.015
260.04,-0.125,0.96
260.04,-0.125,0.915
260.04,-0.105,0.845
260.04,-0.11,0.8
260.05,-0.115,0.725
260.05,-0.12,0.665
260.05,-0.125,0.615
260.06,-0.11,0.585
260.06,-0.11,0.53
260.06,-0.12,0.48
260.06,-0.125,0.43
260.07,-0.145,0.385
260.07,-0.15,0.365
260.07,-0.13,0.35
260.07,-0.135,0.305
260.08,-0.15,0.275
260.08,-0.165,0.245
260.08,-0.18,0.215
260.09,-0.185,0.205
260.09,-0.18,0.205
260.09,-0.17,0.185
260.09,-0.175,0.165
260.1,-0.18,0.15
260.1,-0.19,0.12
260.1,-0.18,0.13
260.11,-0.195,0.13
260.11,-0.18,0.115
260.11,-0.2,0.105
260.11,-0.215,0.085
260.12,-0.225,0.075
260.12,-0.21,0.085
260.12,-0.21,0.085
260.12,-0.205,0.085
260.13,-0.205,0.07
260.13,-0.21,0.065
260.13,-0.21,0.065
260.14,-0.21,0.07
260.14,-0.195,0.09
260.14,-0.19,0.085
260.14,-0.195,0.08
260.15,-0.205,0.065
260.15,-0.215,0.065
260.15,-0.21,0.08
260.16,-0.205,0.08
260.16,-0.205,0.075
260.16,-0.205,0.08
260.16,-0.21,0.075
260.17,-0.225,0.06
260.17,-0.22,0.08
260.17,-0.21,0.085
260.17,-0.195,0.08
260.18,-0.22,0.075
260.18,-0.225,0.075
260.18,-0.235,0.06
260.19,-0.23,0.08
260.19,-0.215,0.095
260.19,-0.205,0.08
260.19,-0.215,0.08
260.2,-0.235,0.075
260.2,-0.24,0.065
260.2,-0.235,0.07
260.21,-0.23,0.08
260.21,-0.23,0.075
260.21,-0.23,0.065
260.21,-0.245,0.055
260.22,-0.255,0.055
260.22,-0.245,0.06
260.22,-0.225,0.075
260.23,-0.23,0.05
260.23,-0.235,0.05
260.23,-0.245,0.035
260.23,-0.245,0.035
260.24,-0.25,0.055
260.24,-0.24,0.045
260.24,-0.23,0.04
260.24,-0.225,0.025
260.25,-0.25,0.015
260.25,-0.265,0
260.25,-0.255,0.015
260.26,-0.25,0.01
260.26,-0.245,0.025
260.26,-0.26,0
260.26,-0.255,-0.015
260.27,-0.265,-0.02
260.27,-0.28,-0.02
260.27,-0.26,-0.01
260.27,-0.265,-0.015
260.28,-0.27,-0.02
260.28,-0.275,-0.035
260.28,-0.27,-0.04
260.29,-0.28,-0.035
260.29,-0.275,-0.03
260.29,-0.265,-0.035
260.29,-0.275,-0.05
260.3,-0.285,-0.05
260.3,-0.29,-0.05
260.3,-0.295,-0.05
260.31,-0.29,-0.045
260.31,-0.285,-0.05
260.31,-0.28,-0.065
260.31,-0.285,-0.075
260.32,-0.295,-0.08
260.32,-0.29,-0.075
260.32,-0.28,-0.06
260.32,-0.27,-0.07
260.33,-0.28,-0.07
260.33,-0.275,-0.085
260.33,-0.295,-0.095
260.34,-0.285,-0.09
260.34,-0.28,-0.07
260.34,-0.275,-0.085
260.34,-0.285,-0.095
260.35,-0.29,-0.095
260.35,-0.295,-0.1
260.35,-0.295,-0.1
260.36,-0.285,-0.09
260.36,-0.28,-0.1
260.36,-0.285,-0.09
260.36,-0.29,-0.11
260.37,-0.31,-0.11
260.37,-0.3,-0.105
260.37,-0.29,-0.095
260.38,-0.29,-0.095
260.38,-0.29,-0.095
260.38,-0.3,-0.105
260.38,-0.305,-0.105
260.39,-0.305,-0.105
260.39,-0.285,-0.085
260.39,-0.29,-0.1
260.39,-0.285,-0.11
260.4,-0.295,-0.115
260.4,-0.3,-0.125
260.4,-0.29,-0.095
260.41,-0.3,-0.1
260.41,-0.285,-0.1
260.41,-0.29,-0.115
260.41,-0.295,-0.12
260.42,-0.305,-0.125
260.42,-0.295,-0.105
260.42,-0.29,-0.09
260.42,-0.28,-0.095
260.43,-0.29,-0.11
260.43,-0.285,-0.11
260.43,-0.3,-0.115
260.44,-0.295,-0.105
260.44,-0.29,-0.1
260.44,-0.29,-0.105
260.44,-0.29,-0.115
260.45,-0.3,-0.115
260.45,-0.295,-0.12
260.45,-0.295,-0.115
260.46,-0.29,-0.1
260.46,-0.275,-0.095
260.46,-0.275,-0.1
260.46,-0.29,-0.12
260.47,-0.295,-0.115
260.47,-0.285,-0.1
260.47,-0.27,-0.07
260.48,-0.26,-0.045
260.48,-0.255,0.005
260.48,-0.255,0.155
260.48,-0.25,0.5
260.49,-0.215,0.89
260.49,-0.17,0.985
260.49,-0.115,0.745
260.49,0.02,0.48
260.5,0.305,0.355
260.5,0.65,0.31
260.5,0.805,0.3
260.51,0.64,0.28
260.51,0.355,0.225
260.51,0.18,0.205
260.51,0.14,0.145
260.52,0.15,0.085
260.52,0.17,-0.02
260.52,0.175,-0.17
260.52,0.2,-0.375
260.53,0.195,-0.625
260.53,0.2,-0.88
260.53,0.205,-1.15
260.54,0.23,-1.405
260.54,0.23,-1.65
260.54,0.24,-1.865
260.54,0.23,-2.055
260.55,0.24,-2.22
260.55,0.255,-2.345
260.55,0.26,-2.425
260.56,0.27,-2.505
260.56,0.26,-2.62
260.56,0.245,-2.755
260.56,0.21,-2.86
260.57,0.16,-2.915
260.57,0.09,-2.945
260.57,0.03,-2.955
260.57,-0.015,-2.99
260.58,-0.06,-3
260.58,-0.135,-3.02
260.58,-0.23,-3.04
260.59,-0.31,-3.035
260.59,-0.345,-3.035
260.59,-0.335,-3.03
260.59,-0.315,-3.025
260.6,-0.29,-3.025
260.6,-0.295,-3.005
260.6,-0.295,-2.97
260.61,-0.315,-2.915
260.61,-0.325,-2.84
260.61,-0.35,-2.755
260.61,-0.38,-2.63
260.62,-0.395,-2.495
260.62,-0.385,-2.345
260.62,-0.38,-2.16
260.62,-0.36,-1.925
260.63,-0.37,-1.685
260.63,-0.38,-1.465
260.63,-0.395,-1.23
260.64,-0.39,-1
260.64,-0.38,-0.78
260.64,-0.385,-0.55
260.64,-0.385,-0.365
260.65,-0.42,-0.2
260.65,-0.445,-0.03
260.65,-0.47,0.11
260.66,-0.475,0.285
260.66,-0.48,0.42
260.66,-0.485,0.54
260.66,-0.485,0.63
260.67,-0.495,0.69
260.67,-0.49,0.745
260.67,-0.49,0.79
260.67,-0.465,0.825
260.68,-0.47,0.85
260.68,-0.475,0.89
260.68,-0.48,0.91
260.69,-0.485,0.965
260.69,-0.475,1
260.69,-0.465,1.04
260.69,-0.475,1.06
260.7,-0.47,1.09
260.7,-0.465,1.125
260.7,-0.46,1.17
260.71,-0.465,1.215
260.71,-0.47,1.23
260.71,-0.465,1.265
260.71,-0.47,1.295
260.72,-0.48,1.33
260.72,-0.48,1.39
260.72,-0.47,1.44
260.73,-0.455,1.47
260.73,-0.455,1.495
260.73,-0.45,1.54
260.73,-0.445,1.57
260.74,-0.46,1.62
260.74,-0.435,1.67
260.74,-0.44,1.695
260.74,-0.44,1.735
260.75,-0.44,1.765
260.75,-0.445,1.795
260.75,-0.42,1.85
260.76,-0.39,1.89
260.76,-0.39,1.925
260.76,-0.375,1.955
260.76,-0.385,1.97
260.77,-0.38,2
260.77,-0.35,2.015
260.77,-0.33,2.045
260.77,-0.335,2.06
260.78,-0.31,2.065
260.78,-0.33,2.065
260.78,-0.33,2.06
260.79,-0.315,2.085
260.79,-0.305,2.095
260.79,-0.295,2.06
260.79,-0.28,2.05
260.8,-0.275,2.015
260.8,-0.255,1.995
260.8,-0.245,1.975
260.81,-0.235,1.945
260.81,-0.22,1.895
260.81,-0.225,1.84
260.81,-0.23,1.785
260.82,-0.235,1.725
260.82,-0.22,1.68
260.82,-0.2,1.625
260.82,-0.18,1.56
260.83,-0.18,1.475
260.83,-0.16,1.405
260.83,-0.17,1.335
260.84,-0.165,1.285
260.84,-0.165,1.23
260.84,-0.165,1.145
260.84,-0.16,1.08
260.85,-0.155,1.02
260.85,-0.16,0.96
260.85,-0.145,0.89
260.86,-0.135,0.86
260.86,-0.145,0.795
260.86,-0.15,0.735
260.86,-0.165,0.67
260.87,-0.165,0.625
260.87,-0.155,0.595
260.87,-0.15,0.555
260.88,-0.16,0.51
260.88,-0.17,0.465
260.88,-0.185,0.425
260.88,-0.2,0.38
260.89,-0.19,0.37
260.89,-0.18,0.345
260.89,-0.17,0.315
260.89,-0.17,0.28
260.9,-0.18,0.255
260.9,-0.2,0.22
260.9,-0.2,0.22
260.91,-0.205,0.205
260.91,-0.2,0.195
260.91,-0.215,0.17
260.91,-0.215,0.15
260.92,-0.24,0.13
260.92,-0.225,0.135
260.92,-0.235,0.13
260.92,-0.25,0.125
260.93,-0.275,0.115
260.93,-0.265,0.095
260.93,-0.255,0.09
260.94,-0.24,0.095
260.94,-0.21,0.1
260.94,-0.195,0.09
260.94,-0.195,0.08
260.95,-0.215,0.06
260.95,-0.22,0.06
260.95,-0.21,0.07
260.96,-0.21,0.08
260.96,-0.215,0.075
260.96,-0.22,0.07
260.96,-0.235,0.055
260.97,-0.235,0.065
260.97,-0.25,0.065
260.97,-0.245,0.08
260.98,-0.235,0.075
260.98,-0.25,0.075
260.98,-0.24,0.05
260.98,-0.24,0.055
260.99,-0.24,0.07
260.99,-0.225,0.075
260.99,-0.24,0.08
260.99,-0.25,0.065
261,-0.255,0.065
261,-0.26,0.06
261,-0.245,0.075
261.01,-0.225,0.07
261.01,-0.225,0.075
261.01,-0.22,0.065
261.01,-0.225,0.06
261.02,-0.245,0.055
261.02,-0.24,0.07
261.02,-0.225,0.07
261.02,-0.215,0.07
261.03,-0.225,0.06
261.03,-0.225,0.05
261.03,-0.235,0.05
261.04,-0.24,0.06
261.04,-0.245,0.07
261.04,-0.255,0.06
261.04,-0.265,0.055
261.05,-0.28,0.04
261.05,-0.28,0.035
261.05,-0.265,0.045
261.06,-0.245,0.04
261.06,-0.24,0.035
261.06,-0.245,0.035
261.06,-0.25,0.02
261.07,-0.265,0.015
261.07,-0.275,0.02
261.07,-0.27,0.025
261.07,-0.25,0.015
261.08,-0.26,0.01
261.08,-0.265,-0.005
261.08,-0.26,-0.005
261.09,-0.245,-0.015
261.09,-0.245,0
261.09,-0.245,-0.005
261.09,-0.25,-0.025
261.1,-0.26,-0.03
261.1,-0.27,-0.04
261.1,-0.275,-0.025
261.11,-0.26,-0.02
261.11,-0.27,-0.04
261.11,-0.28,-0.035
261.11,-0.29,-0.045
261.12,-0.285,-0.06
261.12,-0.28,-0.04
261.12,-0.25,-0.035
261.12,-0.245,-0.04
261.13,-0.25,-0.06
261.13,-0.265,-0.06
261.13,-0.285,-0.06
261.14,-0.27,-0.065
261.14,-0.26,-0.05
261.14,-0.265,-0.065
261.14,-0.255,-0.065
261.15,-0.25,-0.075
261.15,-0.275,-0.09
261.15,-0.265,-0.065
261.16,-0.255,-0.065
261.16,-0.265,-0.07
261.16,-0.275,-0.08
261.16,-0.275,-0.08
261.17,-0.285,-0.08
261.17,-0.285,-0.08
261.17,-0.26,-0.065
261.17,-0.24,-0.085
261.18,-0.245,-0.095
261.18,-0.255,-0.095
261.18,-0.27,-0.09
261.19,-0.27,-0.095
261.19,-0.255,-0.085
261.19,-0.26,-0.085
261.19,-0.27,-0.09
261.2,-0.28,-0.1
261.2,-0.295,-0.115
261.2,-0.29,-0.105
261.21,-0.265,-0.1
261.21,-0.245,-0.1
261.21,-0.23,-0.11
261.21,-0.225,-0.11
261.22,-0.245,-0.105
261.22,-0.26,-0.09
261.22,-0.265,-0.09
261.23,-0.265,-0.105
261.23,-0.28,-0.115
261.23,-0.275,-0.11
261.23,-0.285,-0.105
261.24,-0.28,-0.09
261.24,-0.275,-0.1
261.24,-0.255,-0.1
261.24,-0.255,-0.105
261.25,-0.255,-0.105
261.25,-0.255,-0.11
261.25,-0.265,-0.105
261.26,-0.25,-0.095
261.26,-0.25,-0.105
261.26,-0.255,-0.115
261.26,-0.27,-0.105
261.27,-0.28,-0.125
261.27,-0.255,-0.105
261.27,-0.245,-0.095
261.27,-0.255,-0.105
261.28,-0.265,-0.11
261.28,-0.265,-0.125
261.28,-0.27,-0.115
261.29,-0.255,-0.095
261.29,-0.245,-0.095
261.29,-0.245,-0.09
261.29,-0.245,-0.085
261.3,-0.255,-0.09
261.3,-0.25,-0.05
261.3,-0.245,-0.005
261.31,-0.23,0.115
261.31,-0.21,0.375
261.31,-0.185,0.76
261.31,-0.155,1.005
261.32,-0.11,0.9
261.32,0.02,0.635
261.32,0.305,0.445
261.32,0.715,0.375
261.33,0.92,0.34
261.33,0.77,0.31
261.33,0.42,0.265
261.34,0.195,0.23
261.34,0.13,0.19
261.34,0.165,0.11
261.34,0.19,-0.01
261.35,0.21,-0.17
261.35,0.21,-0.375
261.35,0.235,-0.575
261.36,0.245,-0.795
261.36,0.265,-1.06
261.36,0.27,-1.305
261.36,0.27,-1.56
261.37,0.24,-1.8
261.37,0.235,-1.985
261.37,0.24,-2.135
261.38,0.26,-2.295
261.38,0.255,-2.415
261.38,0.23,-2.51
261.38,0.195,-2.595
261.39,0.155,-2.69
261.39,0.14,-2.775
261.39,0.1,-2.86
261.39,0.035,-2.91
261.4,-0.05,-2.94
261.4,-0.12,-2.955
261.4,-0.165,-2.97
261.41,-0.185,-2.985
261.41,-0.245,-3
261.41,-0.355,-3
261.41,-0.455,-3.025
261.42,-0.53,-3.025
261.42,-0.53,-3.005
261.42,-0.505,-2.995
261.42,-0.49,-2.985
261.43,-0.48,-2.975
261.43,-0.495,-2.95
261.43,-0.515,-2.885
261.44,-0.49,-2.795
261.44,-0.47,-2.68
261.44,-0.455,-2.565
261.44,-0.475,-2.435
261.45,-0.475,-2.31
261.45,-0.48,-2.155
261.45,-0.465,-1.975
261.46,-0.445,-1.775
261.46,-0.43,-1.56
261.46,-0.435,-1.36
261.46,-0.44,-1.17
261.47,-0.45,-0.97
261.47,-0.42,-0.76
261.47,-0.395,-0.57
261.48,-0.38,-0.4
261.48,-0.385,-0.23
261.48,-0.42,-0.09
261.48,-0.43,0.045
261.49,-0.43,0.2
261.49,-0.43,0.345
261.49,-0.415,0.465
261.49,-0.415,0.55
261.5,-0.415,0.61
261.5,-0.42,0.675
261.5,-0.42,0.735
261.51,-0.41,0.78
261.51,-0.395,0.81
261.51,-0.39,0.83
261.51,-0.39,0.865
261.52,-0.395,0.895
261.52,-0.385,0.94
261.52,-0.38,0.98
261.52,-0.38,1
261.53,-0.38,1.03
261.53,-0.39,1.035
261.53,-0.405,1.075
261.54,-0.395,1.11
261.54,-0.38,1.155
261.54,-0.355,1.175
261.54,-0.355,1.2
261.55,-0.355,1.22
261.55,-0.37,1.255
261.55,-0.365,1.3
261.56,-0.36,1.335
261.56,-0.36,1.37
261.56,-0.375,1.395
261.56,-0.37,1.425
261.57,-0.375,1.45
261.57,-0.36,1.5
261.57,-0.345,1.54
261.57,-0.34,1.565
261.58,-0.33,1.59
261.58,-0.34,1.605
261.58,-0.345,1.64
261.59,-0.34,1.67
261.59,-0.33,1.71
261.59,-0.31,1.73
261.59,-0.305,1.75
261.6,-0.295,1.77
261.6,-0.305,1.81
261.6,-0.305,1.845
261.61,-0.29,1.87
261.61,-0.29,1.88
261.61,-0.28,1.89
261.61,-0.285,1.905
261.62,-0.3,1.92
261.62,-0.275,1.95
261.62,-0.26,1.96
261.62,-0.25,1.96
261.63,-0.25,1.955
261.63,-0.235,1.935
261.63,-0.245,1.935
261.64,-0.21,1.94
261.64,-0.215,1.935
261.64,-0.205,1.91
261.64,-0.18,1.88
261.65,-0.18,1.85
261.65,-0.185,1.83
261.65,-0.175,1.8
261.66,-0.165,1.775
261.66,-0.155,1.725
261.66,-0.16,1.68
261.66,-0.17,1.63
261.67,-0.16,1.58
261.67,-0.14,1.535
261.67,-0.13,1.495
261.67,-0.125,1.44
261.68,-0.13,1.375
261.68,-0.13,1.305
261.68,-0.125,1.245
261.69,-0.115,1.195
261.69,-0.11,1.14
261.69,-0.105,1.08
261.69,-0.1,1.01
261.7,-0.11,0.955
261.7,-0.12,0.89
261.7,-0.12,0.865
261.71,-0.12,0.815
261.71,-0.115,0.765
261.71,-0.11,0.705
261.71,-0.12,0.66
261.72,-0.13,0.62
261.72,-0.12,0.59
261.72,-0.13,0.56
261.73,-0.125,0.52
261.73,-0.135,0.475
261.73,-0.15,0.435
261.73,-0.17,0.39
261.74,-0.165,0.37
261.74,-0.16,0.355
261.74,-0.145,0.33
261.74,-0.155,0.29
261.75,-0.165,0.26
261.75,-0.18,0.235
261.75,-0.18,0.225
261.76,-0.165,0.215
261.76,-0.185,0.195
261.76,-0.175,0.165
261.76,-0.195,0.15
261.77,-0.21,0.135
261.77,-0.195,0.125
261.77,-0.185,0.125
261.77,-0.195,0.115
261.78,-0.205,0.095
261.78,-0.21,0.075
261.78,-0.22,0.08
261.79,-0.22,0.08
261.79,-0.21,0.07
261.79,-0.2,0.065
261.79,-0.205,0.055
261.8,-0.22,0.045
261.8,-0.22,0.045
261.8,-0.235,0.045
261.81,-0.205,0.06
261.81,-0.21,0.045
261.81,-0.215,0.045
261.81,-0.215,0.04
261.82,-0.23,0.05
261.82,-0.22,0.04
261.82,-0.21,0.055
261.82,-0.205,0.045
261.83,-0.21,0.04
261.83,-0.22,0.045
261.83,-0.23,0.045
261.84,-0.225,0.05
261.84,-0.225,0.065
261.84,-0.215,0.055
261.84,-0.21,0.05
261.85,-0.225,0.045
261.85,-0.23,0.04
261.85,-0.23,0.045
261.86,-0.235,0.05
261.86,-0.23,0.055
261.86,-0.235,0.06
261.86,-0.235,0.045
261.87,-0.245,0.045
261.87,-0.235,0.055
261.87,-0.22,0.07
261.88,-0.215,0.055
261.88,-0.24,0.065
261.88,-0.235,0.05
261.88,-0.25,0.045
261.89,-0.245,0.055
261.89,-0.24,0.075
261.89,-0.23,0.05
261.89,-0.245,0.05
261.9,-0.255,0.04
261.9,-0.265,0.05
261.9,-0.265,0.045
261.91,-0.245,0.05
261.91,-0.255,0.05
261.91,-0.26,0.04
261.91,-0.265,0.02
261.92,-0.265,0.025
261.92,-0.26,0.045
261.92,-0.28,0.04
261.92,-0.26,0.03
261.93,-0.275,0.015
261.93,-0.28,0.015
261.93,-0.28,0.01
261.94,-0.275,0.025
261.94,-0.28,0.03
261.94,-0.28,0.02
261.94,-0.295,0
261.95,-0.295,-0.015
261.95,-0.305,-0.015
261.95,-0.3,-0.005
261.96,-0.29,-0.005
261.96,-0.29,-0.01
261.96,-0.305,-0.015
261.96,-0.31,-0.04
261.97,-0.32,-0.025
261.97,-0.305,-0.03
261.97,-0.3,-0.03
261.98,-0.3,-0.035
261.98,-0.305,-0.05
261.98,-0.315,-0.05
261.98,-0.325,-0.05
261.99,-0.325,-0.055
261.99,-0.31,-0.045
261.99,-0.31,-0.05
261.99,-0.32,-0.07
262,-0.33,-0.075
262,-0.335,-0.07
262,-0.33,-0.075
262.01,-0.31,-0.055
262.01,-0.315,-0.06
262.01,-0.325,-0.07
262.01,-0.34,-0.085
262.02,-0.325,-0.095
262.02,-0.325,-0.08
262.02,-0.335,-0.09
262.02,-0.33,-0.075
262.03,-0.335,-0.095
262.03,-0.345,-0.095
262.03,-0.345,-0.1
262.04,-0.34,-0.095
262.04,-0.33,-0.08
262.04,-0.335,-0.095
262.04,-0.345,-0.095
262.05,-0.345,-0.105
262.05,-0.36,-0.105
262.05,-0.345,-0.1
262.06,-0.33,-0.08
262.06,-0.345,-0.095
262.06,-0.35,-0.115
262.06,-0.345,-0.115
262.07,-0.35,-0.12
262.07,-0.355,-0.105
262.07,-0.34,-0.095
262.07,-0.34,-0.1
262.08,-0.335,-0.115
262.08,-0.335,-0.115
262.08,-0.35,-0.115
262.09,-0.345,-0.11
262.09,-0.34,-0.105
262.09,-0.335,-0.1
262.09,-0.34,-0.095
262.1,-0.335,-0.12
262.1,-0.355,-0.115
262.1,-0.345,-0.11
262.11,-0.33,-0.095
262.11,-0.325,-0.1
262.11,-0.345,-0.12
262.11,-0.34,-0.125
262.12,-0.345,-0.13
262.12,-0.345,-0.11
262.12,-0.325,-0.105
262.12,-0.315,-0.11
262.13,-0.335,-0.115
262.13,-0.34,-0.12
262.13,-0.345,-0.11
262.14,-0.34,-0.12
262.14,-0.33,-0.105
262.14,-0.33,-0.1
262.14,-0.325,-0.11
262.15,-0.325,-0.12
262.15,-0.325,-0.1
262.15,-0.32,-0.085
262.16,-0.31,-0.06
262.16,-0.305,-0.005
262.16,-0.3,0.105
262.16,-0.285,0.41
262.17,-0.255,0.825
262.17,-0.195,0.98
262.17,-0.085,0.76
262.17,0.145,0.48
262.18,0.56,0.375
262.18,0.83,0.345
262.18,0.695,0.325
262.19,0.355,0.305
262.19,0.13,0.265
262.19,0.08,0.22
262.19,0.11,0.13
262.2,0.145,0.01
262.2,0.14,-0.14
262.2,0.17,-0.325
262.21,0.195,-0.55
262.21,0.22,-0.785
262.21,0.235,-1.025
262.21,0.245,-1.3
262.22,0.235,-1.56
262.22,0.225,-1.77
262.22,0.215,-1.95
262.23,0.22,-2.115
262.23,0.215,-2.27
262.23,0.22,-2.395
262.23,0.205,-2.48
262.24,0.19,-2.585
262.24,0.19,-2.695
262.24,0.17,-2.79
262.24,0.14,-2.855
262.25,0.075,-2.915
262.25,0.01,-2.94
262.25,-0.035,-2.945
262.26,-0.06,-2.955
262.26,-0.105,-2.98
262.26,-0.19,-3.005
262.26,-0.28,-3.015
262.27,-0.36,-3.025
262.27,-0.4,-3.01
262.27,-0.39,-3
262.27,-0.365,-3.005
262.28,-0.34,-2.995
262.28,-0.32,-2.99
262.28,-0.315,-2.955
262.29,-0.325,-2.89
262.29,-0.34,-2.805
262.29,-0.35,-2.71
262.29,-0.37,-2.6
262.3,-0.4,-2.48
262.3,-0.42,-2.33
262.3,-0.405,-2.17
262.31,-0.395,-1.98
262.31,-0.395,-1.755
262.31,-0.41,-1.555
262.31,-0.435,-1.35
262.32,-0.45,-1.14
262.32,-0.44,-0.92
262.32,-0.44,-0.72
262.32,-0.445,-0.52
262.33,-0.46,-0.35
262.33,-0.475,-0.195
262.33,-0.5,-0.05
262.34,-0.515,0.115
262.34,-0.515,0.255
262.34,-0.515,0.38
262.34,-0.51,0.49
262.35,-0.505,0.565
262.35,-0.51,0.65
262.35,-0.515,0.7
262.36,-0.49,0.745
262.36,-0.495,0.78
262.36,-0.495,0.815
262.36,-0.505,0.84
262.37,-0.51,0.875
262.37,-0.5,0.91
262.37,-0.49,0.965
262.38,-0.495,0.99
262.38,-0.485,1.005
262.38,-0.49,1.045
262.38,-0.5,1.065
262.39,-0.49,1.115
262.39,-0.495,1.145
262.39,-0.48,1.17
262.39,-0.49,1.195
262.4,-0.495,1.215
262.4,-0.5,1.255
262.4,-0.49,1.3
262.41,-0.485,1.34
262.41,-0.48,1.37
262.41,-0.475,1.4
262.41,-0.48,1.425
262.42,-0.49,1.46
262.42,-0.47,1.51
262.42,-0.47,1.54
262.42,-0.46,1.575
262.43,-0.475,1.6
262.43,-0.47,1.62
262.43,-0.485,1.65
262.44,-0.475,1.7
262.44,-0.475,1.74
262.44,-0.46,1.775
262.44,-0.45,1.79
262.45,-0.465,1.805
262.45,-0.465,1.855
262.45,-0.455,1.88
262.46,-0.44,1.92
262.46,-0.43,1.92
262.46,-0.44,1.95
262.46,-0.435,1.95
262.47,-0.435,1.98
262.47,-0.415,1.995
262.47,-0.41,2.005
262.48,-0.405,2.025
262.48,-0.4,2
262.48,-0.405,2.01
262.48,-0.405,2.01
262.49,-0.385,2
262.49,-0.36,2
262.49,-0.37,1.99
262.49,-0.36,1.965
262.5,-0.36,1.935
262.5,-0.345,1.915
262.5,-0.34,1.885
262.51,-0.32,1.855
262.51,-0.3,1.815
262.51,-0.295,1.77
262.51,-0.295,1.725
262.52,-0.295,1.68
262.52,-0.28,1.635
262.52,-0.265,1.59
262.52,-0.26,1.535
262.53,-0.26,1.46
262.53,-0.265,1.41
262.53,-0.25,1.36
262.54,-0.24,1.295
262.54,-0.225,1.25
262.54,-0.23,1.195
262.54,-0.23,1.125
262.55,-0.23,1.06
262.55,-0.225,1.015
262.55,-0.225,0.97
262.56,-0.225,0.93
262.56,-0.22,0.855
262.56,-0.225,0.805
262.56,-0.24,0.745
262.57,-0.24,0.695
262.57,-0.235,0.66
262.57,-0.23,0.625
262.57,-0.23,0.58
262.58,-0.24,0.53
262.58,-0.26,0.48
262.58,-0.25,0.455
262.59,-0.255,0.415
262.59,-0.245,0.395
262.59,-0.255,0.36
262.59,-0.24,0.315
262.6,-0.26,0.29
262.6,-0.265,0.26
262.6,-0.275,0.25
262.61,-0.26,0.245
262.61,-0.26,0.22
262.61,-0.265,0.195
262.61,-0.27,0.17
262.62,-0.29,0.16
262.62,-0.275,0.15
262.62,-0.275,0.135
262.62,-0.27,0.125
262.63,-0.275,0.105
262.63,-0.28,0.08
262.63,-0.295,0.07
262.64,-0.28,0.08
262.64,-0.275,0.08
262.64,-0.275,0.065
262.64,-0.285,0.055
262.65,-0.29,0.045
262.65,-0.295,0.05
262.65,-0.285,0.045
262.66,-0.28,0.065
262.66,-0.28,0.045
262.66,-0.285,0.04
262.66,-0.285,0.025
262.67,-0.3,0.03
262.67,-0.29,0.035
262.67,-0.28,0.05
262.67,-0.28,0.04
262.68,-0.28,0.035
262.68,-0.29,0.03
262.68,-0.29,0.025
262.69,-0.3,0.045
262.69,-0.28,0.045
262.69,-0.28,0.05
262.69,-0.285,0.04
262.7,-0.29,0.03
262.7,-0.295,0.03
262.7,-0.29,0.045
262.71,-0.285,0.05
262.71,-0.28,0.05
262.71,-0.285,0.035
262.71,-0.29,0.04
262.72,-0.295,0.03
262.72,-0.285,0.045
262.72,-0.275,0.055
262.73,-0.265,0.05
262.73,-0.28,0.04
262.73,-0.29,0.04
262.73,-0.3,0.035
262.74,-0.29,0.045
262.74,-0.29,0.06
262.74,-0.295,0.05
262.74,-0.285,0.035
262.75,-0.295,0.035
262.75,-0.3,0.035
262.75,-0.29,0.045
262.76,-0.285,0.045
262.76,-0.29,0.03
262.76,-0.295,0.025
262.76,-0.31,0.005
262.77,-0.32,0.025
262.77,-0.305,0.02
262.77,-0.295,0.025
262.77,-0.295,0.01
262.78,-0.31,0.005
262.78,-0.315,0
262.78,-0.315,0
262.79,-0.305,0.005
262.79,-0.315,0.005
262.79,-0.32,0
262.79,-0.32,-0.01
262.8,-0.325,-0.03
262.8,-0.345,-0.035
262.8,-0.32,-0.035
262.81,-0.315,-0.03
262.81,-0.315,-0.04
262.81,-0.315,-0.04
262.81,-0.325,-0.055
262.82,-0.335,-0.05
262.82,-0.325,-0.05
262.82,-0.315,-0.05
262.82,-0.32,-0.06
262.83,-0.335,-0.07
262.83,-0.335,-0.075
262.83,-0.35,-0.08
262.84,-0.34,-0.08
262.84,-0.325,-0.075
262.84,-0.335,-0.08
262.84,-0.34,-0.085
262.85,-0.345,-0.09
262.85,-0.365,-0.095
262.85,-0.35,-0.085
262.86,-0.34,-0.095
262.86,-0.34,-0.09
262.86,-0.34,-0.1
262.86,-0.35,-0.11
262.87,-0.36,-0.11
262.87,-0.35,-0.105
262.87,-0.335,-0.1
262.88,-0.345,-0.105
262.88,-0.34,-0.105
262.88,-0.355,-0.12
262.88,-0.365,-0.125
262.89,-0.345,-0.105
262.89,-0.345,-0.105
262.89,-0.335,-0.11
262.89,-0.345,-0.125
262.9,-0.35,-0.125
262.9,-0.355,-0.125
262.9,-0.345,-0.125
262.91,-0.335,-0.115
262.91,-0.35,-0.125
262.91,-0.345,-0.13
262.91,-0.36,-0.14
262.92,-0.365,-0.135
262.92,-0.355,-0.135
262.92,-0.355,-0.115
262.92,-0.345,-0.125
262.93,-0.355,-0.13
262.93,-0.36,-0.145
262.93,-0.365,-0.135
262.94,-0.365,-0.125
262.94,-0.35,-0.13
262.94,-0.36,-0.13
262.94,-0.365,-0.13
262.95,-0.375,-0.14
262.95,-0.39,-0.145
262.95,-0.37,-0.13
262.96,-0.37,-0.13
262.96,-0.355,-0.12
262.96,-0.37,-0.14
262.96,-0.37,-0.155
262.97,-0.39,-0.145
262.97,-0.38,-0.13
262.97,-0.37,-0.125
262.98,-0.365,-0.12
262.98,-0.365,-0.135
262.98,-0.375,-0.14
262.98,-0.38,-0.125
262.99,-0.365,-0.12
262.99,-0.355,-0.105
262.99,-0.335,-0.095
262.99,-0.33,-0.1
263,-0.33,-0.085
263,-0.335,-0.075
263,-0.33,-0.05
263.01,-0.32,-0.005
263.01,-0.305,0.06
263.01,-0.29,0.225
263.01,-0.285,0.525
263.02,-0.265,0.835
263.02,-0.2,0.865
263.02,-0.11,0.645
263.02,0.13,0.415
263.03,0.5,0.31
263.03,0.775,0.28
263.03,0.71,0.23
263.04,0.44,0.205
263.04,0.215,0.165
263.04,0.135,0.1
263.04,0.145,0.035
263.05,0.155,-0.095
263.05,0.15,-0.24
263.05,0.16,-0.42
263.06,0.17,-0.635
263.06,0.17,-0.87
263.06,0.18,-1.115
263.06,0.185,-1.355
263.07,0.175,-1.605
263.07,0.175,-1.82
263.07,0.17,-1.99
263.07,0.175,-2.135
263.08,0.17,-2.27
263.08,0.175,-2.395
263.08,0.17,-2.49
263.09,0.17,-2.55
263.09,0.17,-2.63
263.09,0.145,-2.735
263.09,0.135,-2.825
263.1,0.11,-2.9
263.1,0.055,-2.935
263.1,0,-2.945
263.11,-0.04,-2.96
263.11,-0.07,-2.98
263.11,-0.115,-3.005
263.11,-0.19,-3.03
263.12,-0.275,-3.03
263.12,-0.35,-3.015
263.12,-0.39,-3.01
263.12,-0.385,-3.005
263.13,-0.38,-3.01
263.13,-0.345,-3
263.13,-0.315,-2.995
263.14,-0.295,-2.955
263.14,-0.305,-2.9
263.14,-0.325,-2.845
263.14,-0.35,-2.775
263.15,-0.39,-2.69
263.15,-0.42,-2.565
263.15,-0.44,-2.455
263.16,-0.455,-2.315
263.16,-0.445,-2.175
263.16,-0.445,-2.005
263.16,-0.445,-1.78
263.17,-0.445,-1.56
263.17,-0.435,-1.34
263.17,-0.445,-1.13
263.17,-0.46,-0.905
263.18,-0.465,-0.705
263.18,-0.475,-0.52
263.18,-0.47,-0.33
263.19,-0.47,-0.15
263.19,-0.475,0.015
263.19,-0.48,0.155
263.19,-0.49,0.29
263.2,-0.495,0.415
263.2,-0.49,0.54
263.2,-0.48,0.635
263.21,-0.47,0.705
263.21,-0.46,0.755
263.21,-0.465,0.795
263.21,-0.465,0.835
263.22,-0.465,0.865
263.22,-0.455,0.915
263.22,-0.45,0.965
263.23,-0.45,0.98
263.23,-0.465,1.015
263.23,-0.465,1.04
263.23,-0.46,1.095
263.24,-0.435,1.13
263.24,-0.415,1.16
263.24,-0.41,1.205
263.24,-0.43,1.215
263.25,-0.43,1.245
263.25,-0.435,1.285
263.25,-0.42,1.33
263.26,-0.415,1.375
263.26,-0.405,1.395
263.26,-0.41,1.42
263.26,-0.42,1.455
263.27,-0.42,1.48
263.27,-0.41,1.53
263.27,-0.405,1.57
263.27,-0.415,1.62
263.28,-0.425,1.635
263.28,-0.41,1.66
263.28,-0.41,1.695
263.29,-0.405,1.74
263.29,-0.385,1.77
263.29,-0.38,1.805
263.29,-0.38,1.83
263.3,-0.385,1.84
263.3,-0.39,1.875
263.3,-0.38,1.91
263.31,-0.385,1.945
263.31,-0.375,1.965
263.31,-0.39,1.975
263.31,-0.385,1.995
263.32,-0.375,2.015
263.32,-0.355,2.04
263.32,-0.335,2.065
263.32,-0.325,2.065
263.33,-0.34,2.06
263.33,-0.35,2.05
263.33,-0.345,2.055
263.34,-0.325,2.05
263.34,-0.295,2.045
263.34,-0.265,2.03
263.34,-0.25,1.99
263.35,-0.245,1.965
263.35,-0.26,1.945
263.35,-0.24,1.91
263.36,-0.23,1.89
263.36,-0.23,1.84
263.36,-0.22,1.795
263.36,-0.24,1.74
263.37,-0.235,1.69
263.37,-0.22,1.65
263.37,-0.205,1.59
263.38,-0.205,1.53
263.38,-0.215,1.455
263.38,-0.225,1.38
263.38,-0.22,1.33
263.39,-0.2,1.28
263.39,-0.19,1.23
263.39,-0.19,1.145
263.39,-0.2,1.07
263.4,-0.225,1.005
263.4,-0.205,0.95
263.4,-0.19,0.895
263.41,-0.17,0.855
263.41,-0.18,0.8
263.41,-0.18,0.73
263.41,-0.2,0.69
263.42,-0.22,0.65
263.42,-0.21,0.605
263.42,-0.2,0.575
263.42,-0.19,0.53
263.43,-0.2,0.475
263.43,-0.215,0.435
263.43,-0.225,0.405
263.44,-0.225,0.38
263.44,-0.215,0.35
263.44,-0.22,0.315
263.44,-0.225,0.28
263.45,-0.22,0.245
263.45,-0.235,0.23
263.45,-0.235,0.205
263.46,-0.245,0.19
263.46,-0.245,0.175
263.46,-0.265,0.155
263.46,-0.28,0.125
263.47,-0.285,0.12
263.47,-0.26,0.12
263.47,-0.23,0.12
263.48,-0.24,0.095
263.48,-0.25,0.075
263.48,-0.27,0.06
263.48,-0.295,0.05
263.49,-0.285,0.06
263.49,-0.285,0.05
263.49,-0.28,0.045
263.49,-0.27,0.025
263.5,-0.265,0.015
263.5,-0.27,0.01
263.5,-0.27,0.015
263.51,-0.265,0.02
263.51,-0.27,0.03
263.51,-0.285,0.01
263.51,-0.3,0
263.52,-0.285,-0.005
263.52,-0.26,0.005
263.52,-0.245,0.01
263.52,-0.245,0
263.53,-0.26,-0.015
263.53,-0.275,-0.01
263.53,-0.275,-0.005
263.54,-0.27,0.01
263.54,-0.265,0.01
263.54,-0.25,0.015
263.54,-0.26,-0.005
263.55,-0.265,-0.01
263.55,-0.275,0.005
263.55,-0.27,0.015
263.56,-0.26,0.01
263.56,-0.26,0.02
263.56,-0.27,0
263.56,-0.295,-0.005
263.57,-0.285,0.005
263.57,-0.28,0.015
263.57,-0.27,0.02
263.57,-0.265,0.015
263.58,-0.265,0
263.58,-0.265,0
263.58,-0.29,0.005
263.59,-0.28,0.015
263.59,-0.29,0.025
263.59,-0.285,0.02
263.59,-0.285,0.005
263.6,-0.275,-0.01
263.6,-0.285,0.01
263.6,-0.275,0.01
263.61,-0.27,0
263.61,-0.27,0
263.61,-0.28,-0.015
263.61,-0.29,-0.01
263.62,-0.275,-0.015
263.62,-0.275,-0.015
263.62,-0.28,0
263.62,-0.29,-0.01
263.63,-0.31,-0.025
263.63,-0.33,-0.04
263.63,-0.325,-0.025
263.64,-0.305,-0.02
263.64,-0.27,-0.025
263.64,-0.275,-0.02
263.64,-0.29,-0.035
263.65,-0.33,-0.04
263.65,-0.325,-0.055
263.65,-0.335,-0.05
263.66,-0.32,-0.055
263.66,-0.305,-0.06
263.66,-0.275,-0.07
263.66,-0.28,-0.08
263.67,-0.28,-0.075
263.67,-0.3,-0.075
263.67,-0.31,-0.07
263.67,-0.305,-0.065
263.68,-0.3,-0.09
263.68,-0.305,-0.095
263.68,-0.29,-0.1
263.69,-0.29,-0.095
263.69,-0.285,-0.095
263.69,-0.295,-0.095
263.69,-0.305,-0.11
263.7,-0.305,-0.12
263.7,-0.315,-0.115
263.7,-0.305,-0.11
263.71,-0.3,-0.115
263.71,-0.3,-0.115
263.71,-0.32,-0.13
263.71,-0.34,-0.135
263.72,-0.35,-0.135
263.72,-0.33,-0.125
263.72,-0.305,-0.115
263.73,-0.31,-0.125
263.73,-0.315,-0.125
263.73,-0.3,-0.15
263.73,-0.3,-0.155
263.74,-0.285,-0.135
263.74,-0.275,-0.13
263.74,-0.29,-0.135
263.74,-0.32,-0.145
263.75,-0.335,-0.155
263.75,-0.345,-0.16
263.75,-0.335,-0.145
263.76,-0.3,-0.145
263.76,-0.3,-0.13
263.76,-0.315,-0.14
263.76,-0.325,-0.165
263.77,-0.325,-0.15
263.77,-0.31,-0.14
263.77,-0.28,-0.135
263.77,-0.28,-0.145
263.78,-0.3,-0.15
263.78,-0.31,-0.16
263.78,-0.305,-0.14
263.79,-0.305,-0.14
263.79,-0.32,-0.14
263.79,-0.32,-0.14
263.79,-0.32,-0.145
263.8,-0.335,-0.155
263.8,-0.35,-0.15
263.8,-0.355,-0.135
263.81,-0.34,-0.135
263.81,-0.315,-0.13
263.81,-0.29,-0.145
263.81,-0.27,-0.15
263.82,-0.275,-0.135
263.82,-0.3,-0.105
263.82,-0.3,-0.1
263.82,-0.305,-0.1
263.83,-0.285,-0.1
263.83,-0.26,-0.095
263.83,-0.25,-0.08
263.84,-0.25,-0.07
263.84,-0.24,-0.045
263.84,-0.245,-0.01
263.84,-0.235,0.095
263.85,-0.23,0.395
263.85,-0.2,0.815
263.85,-0.14,0.95
263.86,-0.065,0.74
263.86,0.105,0.455
263.86,0.475,0.305
263.86,0.825,0.255
263.87,0.81,0.21
263.87,0.535,0.165
263.87,0.275,0.12
263.88,0.18,0.055
263.88,0.185,-0.05
263.88,0.205,-0.165
263.88,0.21,-0.315
263.89,0.23,-0.495
263.89,0.25,-0.685
263.89,0.255,-0.89
263.89,0.26,-1.1
263.9,0.265,-1.33
263.9,0.235,-1.575
263.9,0.21,-1.765
263.91,0.2,-1.945
263.91,0.2,-2.125
263.91,0.22,-2.28
263.91,0.235,-2.41
263.92,0.23,-2.505
263.92,0.21,-2.615
263.92,0.185,-2.725
263.92,0.155,-2.84
263.93,0.13,-2.91
263.93,0.075,-2.95
263.93,0.015,-2.97
263.94,-0.035,-2.985
263.94,-0.075,-2.99
263.94,-0.15,-3.02
263.94,-0.25,-3.04
263.95,-0.365,-3.05
263.95,-0.48,-3.045
263.95,-0.53,-3.05
263.96,-0.525,-3.04
263.96,-0.495,-3.03
263.96,-0.475,-3.025
263.96,-0.46,-3
263.97,-0.485,-2.93
263.97,-0.5,-2.84
263.97,-0.515,-2.725
263.98,-0.54,-2.605
263.98,-0.545,-2.47
263.98,-0.555,-2.34
263.98,-0.55,-2.18
263.99,-0.515,-1.975
263.99,-0.47,-1.77
263.99,-0.45,-1.525
263.99,-0.445,-1.31
264,-0.44,-1.12
264,-0.445,-0.9
264,-0.42,-0.665
264.01,-0.4,-0.475
264.01,-0.41,-0.295
264.01,-0.435,-0.135
264.01,-0.455,0
264.02,-0.465,0.16
264.02,-0.455,0.295
264.02,-0.435,0.41
264.02,-0.415,0.505
264.03,-0.42,0.56
264.03,-0.41,0.61
264.03,-0.4,0.65
264.04,-0.4,0.705
264.04,-0.38,0.755
264.04,-0.365,0.785
264.04,-0.365,0.82
264.05,-0.375,0.83
264.05,-0.37,0.885
264.05,-0.365,0.93
264.06,-0.355,0.96
264.06,-0.35,0.995
264.06,-0.36,1.025
264.06,-0.365,1.05
264.07,-0.38,1.07
264.07,-0.365,1.12
264.07,-0.35,1.155
264.07,-0.345,1.19
264.08,-0.36,1.22
264.08,-0.375,1.235
264.08,-0.355,1.285
264.09,-0.35,1.33
264.09,-0.345,1.37
264.09,-0.34,1.395
264.09,-0.345,1.43
264.1,-0.355,1.455
264.1,-0.34,1.485
264.1,-0.335,1.53
264.11,-0.33,1.565
264.11,-0.325,1.6
264.11,-0.325,1.61
264.11,-0.34,1.635
264.12,-0.34,1.675
264.12,-0.34,1.715
264.12,-0.325,1.735
264.12,-0.325,1.76
264.13,-0.32,1.78
264.13,-0.32,1.8
264.13,-0.335,1.82
264.14,-0.315,1.85
264.14,-0.305,1.865
264.14,-0.285,1.865
264.14,-0.295,1.86
264.15,-0.285,1.84
264.15,-0.285,1.85
264.15,-0.265,1.86
264.16,-0.245,1.85
264.16,-0.25,1.83
264.16,-0.245,1.805
264.16,-0.25,1.755
264.17,-0.255,1.74
264.17,-0.24,1.715
264.17,-0.225,1.68
264.17,-0.22,1.635
264.18,-0.21,1.58
264.18,-0.21,1.505
264.18,-0.205,1.465
264.19,-0.195,1.425
264.19,-0.18,1.36
264.19,-0.195,1.295
264.19,-0.195,1.225
264.2,-0.185,1.155
264.2,-0.2,1.095
264.2,-0.185,1.045
264.21,-0.18,0.98
264.21,-0.185,0.92
264.21,-0.185,0.855
264.21,-0.19,0.775
264.22,-0.195,0.73
264.22,-0.19,0.695
264.22,-0.195,0.635
264.23,-0.195,0.585
264.23,-0.2,0.535
264.23,-0.21,0.49
264.23,-0.215,0.455
264.24,-0.23,0.42
264.24,-0.235,0.4
264.24,-0.235,0.365
264.24,-0.25,0.32
264.25,-0.25,0.28
264.25,-0.26,0.25
264.25,-0.255,0.235
264.26,-0.25,0.215
264.26,-0.255,0.185
264.26,-0.26,0.16
264.26,-0.275,0.13
264.27,-0.295,0.13
264.27,-0.285,0.12
264.27,-0.27,0.105
264.27,-0.27,0.08
264.28,-0.28,0.06
264.28,-0.285,0.055
264.28,-0.295,0.045
264.29,-0.285,0.05
264.29,-0.285,0.04
264.29,-0.29,0.03
264.29,-0.295,0.02
264.3,-0.3,0.01
264.3,-0.32,0.01
264.3,-0.305,-0.005
264.31,-0.295,0.01
264.31,-0.29,0.01
264.31,-0.29,0
264.31,-0.295,-0.03
264.32,-0.295,-0.015
264.32,-0.295,-0.005
264.32,-0.3,-0.005
264.32,-0.295,-0.02
264.33,-0.3,-0.025
264.33,-0.29,-0.02
264.33,-0.305,-0.01
264.34,-0.295,-0.005
264.34,-0.3,-0.005
264.34,-0.285,-0.005
264.34,-0.29,-0.015
264.35,-0.295,-0.01
264.35,-0.305,-0.01
264.35,-0.295,0.005
264.36,-0.295,0.015
264.36,-0.29,0.015
264.36,-0.295,-0.005
264.36,-0.3,0
264.37,-0.315,0
264.37,-0.29,0.02
264.37,-0.29,0.025
264.38,-0.295,0.025
264.38,-0.3,0.015
264.38,-0.305,0.02
264.38,-0.31,0.01
264.39,-0.305,0.02
264.39,-0.3,0.03
264.39,-0.3,0.025
264.39,-0.305,0.015
264.4,-0.32,0
264.4,-0.32,0.005
264.4,-0.315,0.01
264.41,-0.305,0.005
264.41,-0.32,0.015
264.41,-0.31,0
264.41,-0.33,-0.01
264.42,-0.335,-0.015
264.42,-0.34,-0.005
264.42,-0.32,0.01
264.42,-0.32,-0.01
264.43,-0.32,-0.01
264.43,-0.33,-0.02
264.43,-0.34,-0.025
264.44,-0.335,-0.015
264.44,-0.325,-0.015
264.44,-0.33,-0.035
264.44,-0.335,-0.03
264.45,-0.35,-0.055
264.45,-0.355,-0.045
264.45,-0.34,-0.035
264.46,-0.345,-0.045
264.46,-0.33,-0.04
264.46,-0.355,-0.06
264.46,-0.35,-0.075
264.47,-0.36,-0.065
264.47,-0.35,-0.065
264.47,-0.34,-0.08
264.48,-0.34,-0.065
264.48,-0.36,-0.085
264.48,-0.365,-0.095
264.48,-0.355,-0.085
264.49,-0.355,-0.085
264.49,-0.345,-0.08
264.49,-0.345,-0.08
264.49,-0.35,-0.105
264.5,-0.365,-0.11
264.5,-0.36,-0.1
264.5,-0.365,-0.105
264.51,-0.35,-0.11
264.51,-0.365,-0.105
264.51,-0.375,-0.12
264.51,-0.375,-0.125
264.52,-0.385,-0.125
264.52,-0.36,-0.115
264.52,-0.355,-0.11
264.52,-0.365,-0.12
264.53,-0.365,-0.125
264.53,-0.38,-0.14
264.53,-0.375,-0.125
264.54,-0.375,-0.12
264.54,-0.37,-0.11
264.54,-0.36,-0.14
264.54,-0.37,-0.14
264.55,-0.38,-0.155
264.55,-0.385,-0.145
264.55,-0.365,-0.135
264.56,-0.36,-0.125
264.56,-0.37,-0.125
264.56,-0.37,-0.14
264.56,-0.375,-0.145
264.57,-0.385,-0.15
264.57,-0.375,-0.14
264.57,-0.37,-0.13
264.57,-0.375,-0.13
264.58,-0.375,-0.145
264.58,-0.385,-0.155
264.58,-0.385,-0.155
264.59,-0.375,-0.135
264.59,-0.38,-0.13
264.59,-0.375,-0.14
264.59,-0.375,-0.14
264.6,-0.4,-0.15
264.6,-0.405,-0.13
264.6,-0.37,-0.125
264.61,-0.37,-0.11
264.61,-0.355,-0.105
264.61,-0.355,-0.1
264.61,-0.365,-0.115
264.62,-0.375,-0.105
264.62,-0.36,-0.085
264.62,-0.355,-0.07
264.62,-0.355,-0.085
264.63,-0.355,-0.095
264.63,-0.365,-0.105
264.63,-0.355,-0.11
264.64,-0.345,-0.09
264.64,-0.33,-0.08
264.64,-0.315,-0.02
264.64,-0.295,0.17
264.65,-0.28,0.55
264.65,-0.255,0.915
264.65,-0.195,0.88
264.66,-0.11,0.565
264.66,0.135,0.32
264.66,0.53,0.215
264.66,0.715,0.205
264.67,0.545,0.17
264.67,0.255,0.135
264.67,0.08,0.09
264.67,0.075,0.025
264.68,0.085,-0.08
264.68,0.11,-0.22
264.68,0.13,-0.41
264.69,0.14,-0.64
264.69,0.15,-0.885
264.69,0.155,-1.14
264.69,0.15,-1.395
264.7,0.15,-1.665
264.7,0.14,-1.89
264.7,0.15,-2.055
264.71,0.165,-2.195
264.71,0.19,-2.33
264.71,0.195,-2.45
264.71,0.185,-2.565
264.72,0.165,-2.685
264.72,0.165,-2.78
264.72,0.17,-2.86
264.73,0.125,-2.925
264.73,0.055,-2.975
264.73,0.01,-2.985
264.73,-0.03,-3
264.74,-0.05,-3.02
264.74,-0.11,-3.03
264.74,-0.195,-3.04
264.74,-0.29,-3.07
264.75,-0.34,-3.075
264.75,-0.335,-3.065
264.75,-0.29,-3.06
264.76,-0.26,-3.045
264.76,-0.26,-3.025
264.76,-0.275,-2.975
264.76,-0.32,-2.925
264.77,-0.36,-2.825
264.77,-0.395,-2.7
264.77,-0.425,-2.58
264.77,-0.44,-2.465
264.78,-0.47,-2.335
264.78,-0.465,-2.165
264.78,-0.465,-1.94
264.79,-0.455,-1.68
264.79,-0.45,-1.445
264.79,-0.47,-1.21
264.79,-0.47,-1
264.8,-0.48,-0.78
264.8,-0.485,-0.55
264.8,-0.485,-0.34
264.81,-0.5,-0.16
264.81,-0.51,0.01
264.81,-0.525,0.16
264.81,-0.535,0.3
264.82,-0.535,0.455
264.82,-0.52,0.56
264.82,-0.505,0.655
264.82,-0.505,0.71
264.83,-0.515,0.73
264.83,-0.525,0.775
264.83,-0.525,0.835
264.84,-0.505,0.88
264.84,-0.48,0.92
264.84,-0.48,0.96
264.84,-0.495,0.985
264.85,-0.5,1.02
264.85,-0.5,1.055
264.85,-0.485,1.105
264.86,-0.465,1.14
264.86,-0.475,1.175
264.86,-0.49,1.215
264.86,-0.495,1.245
264.87,-0.49,1.29
264.87,-0.465,1.33
264.87,-0.465,1.37
264.88,-0.47,1.425
264.88,-0.46,1.44
264.88,-0.475,1.48
264.88,-0.48,1.52
264.89,-0.47,1.575
264.89,-0.455,1.61
264.89,-0.455,1.65
264.89,-0.455,1.67
264.9,-0.465,1.7
264.9,-0.455,1.73
264.9,-0.45,1.78
264.91,-0.435,1.82
264.91,-0.43,1.845
264.91,-0.425,1.86
264.91,-0.435,1.87
264.92,-0.44,1.89
264.92,-0.42,1.92
264.92,-0.395,1.95
264.92,-0.395,1.95
264.93,-0.395,1.955
264.93,-0.395,1.955
264.93,-0.4,1.96
264.94,-0.38,1.97
264.94,-0.36,1.96
264.94,-0.35,1.955
264.94,-0.355,1.92
264.95,-0.35,1.885
264.95,-0.35,1.87
264.95,-0.33,1.855
264.96,-0.315,1.81
264.96,-0.305,1.785
264.96,-0.305,1.725
264.96,-0.31,1.675
264.97,-0.31,1.625
264.97,-0.29,1.565
264.97,-0.275,1.51
264.98,-0.27,1.445
264.98,-0.27,1.375
264.98,-0.26,1.305
264.98,-0.27,1.25
264.99,-0.26,1.2
264.99,-0.245,1.135
264.99,-0.25,1.06
264.99,-0.26,0.975
265,-0.255,0.91
265,-0.255,0.855
265,-0.255,0.81
265.01,-0.24,0.755
265.01,-0.24,0.7
265.01,-0.245,0.63
265.01,-0.25,0.565
265.02,-0.26,0.515
265.02,-0.255,0.485
265.02,-0.245,0.46
265.02,-0.25,0.41
265.03,-0.26,0.36
265.03,-0.28,0.33
265.03,-0.28,0.295
265.04,-0.28,0.27
265.04,-0.265,0.255
265.04,-0.28,0.23
265.04,-0.285,0.205
265.05,-0.3,0.165
265.05,-0.31,0.155
265.05,-0.29,0.15
265.06,-0.295,0.13
265.06,-0.28,0.11
265.06,-0.3,0.095
265.06,-0.3,0.07
265.07,-0.315,0.065
265.07,-0.315,0.06
265.07,-0.305,0.06
265.07,-0.305,0.045
265.08,-0.305,0.04
265.08,-0.32,0.02
265.08,-0.315,0.015
265.09,-0.315,0.02
265.09,-0.31,0.015
265.09,-0.31,0.015
265.09,-0.31,0
265.1,-0.315,0
265.1,-0.32,0.005
265.1,-0.32,0.01
265.11,-0.31,0
265.11,-0.305,-0.005
265.11,-0.31,-0.015
265.11,-0.32,-0.015
265.12,-0.315,-0.015
265.12,-0.305,0
265.12,-0.3,0
265.12,-0.305,0
265.13,-0.305,-0.01
265.13,-0.31,-0.015
265.13,-0.31,0
265.14,-0.305,0.01
265.14,-0.305,0
265.14,-0.295,-0.005
265.14,-0.3,0
265.15,-0.31,-0.005
265.15,-0.31,0.01
265.15,-0.31,0.01
265.16,-0.315,0.01
265.16,-0.3,0.01
265.16,-0.315,0
265.16,-0.315,-0.015
265.17,-0.32,0
265.17,-0.305,0.015
265.17,-0.3,0.02
265.17,-0.305,0.01
265.18,-0.315,0.01
265.18,-0.33,-0.005
265.18,-0.33,-0.005
265.19,-0.32,0.005
265.19,-0.31,0.005
265.19,-0.31,0
265.19,-0.335,-0.005
265.2,-0.33,-0.01
265.2,-0.345,-0.01
265.2,-0.335,-0.01
265.21,-0.33,0
265.21,-0.32,0.005
265.21,-0.33,-0.02
265.21,-0.335,-0.02
265.22,-0.34,-0.025
265.22,-0.34,-0.025
265.22,-0.335,-0.03
265.23,-0.325,-0.03
265.23,-0.33,-0.035
265.23,-0.34,-0.045
265.23,-0.35,-0.045
265.24,-0.34,-0.035
265.24,-0.34,-0.04
265.24,-0.33,-0.05
265.24,-0.34,-0.055
265.25,-0.35,-0.075
265.25,-0.35,-0.075
265.25,-0.345,-0.08
265.26,-0.335,-0.07
265.26,-0.34,-0.07
265.26,-0.34,-0.085
265.26,-0.355,-0.095
265.27,-0.36,-0.09
265.27,-0.35,-0.09
265.27,-0.35,-0.09
265.27,-0.345,-0.095
265.28,-0.365,-0.1
265.28,-0.375,-0.115
265.28,-0.375,-0.11
265.29,-0.365,-0.11
265.29,-0.345,-0.11
265.29,-0.345,-0.115
265.29,-0.36,-0.125
265.3,-0.36,-0.145
265.3,-0.37,-0.13
265.3,-0.36,-0.125
265.31,-0.36,-0.125
265.31,-0.36,-0.135
265.31,-0.375,-0.135
265.31,-0.375,-0.14
265.32,-0.375,-0.14
265.32,-0.375,-0.14
265.32,-0.365,-0.135
265.32,-0.36,-0.125
265.33,-0.37,-0.14
265.33,-0.38,-0.16
265.33,-0.38,-0.16
265.34,-0.36,-0.15
265.34,-0.355,-0.13
265.34,-0.365,-0.15
265.34,-0.375,-0.15
265.35,-0.39,-0.17
265.35,-0.385,-0.17
265.35,-0.365,-0.155
265.36,-0.365,-0.145
265.36,-0.355,-0.16
265.36,-0.36,-0.15
265.36,-0.37,-0.175
265.37,-0.375,-0.17
265.37,-0.37,-0.155
265.37,-0.36,-0.15
265.38,-0.355,-0.155
265.38,-0.36,-0.16
265.38,-0.37,-0.175
265.38,-0.365,-0.16
265.39,-0.355,-0.15
265.39,-0.345,-0.145
265.39,-0.35,-0.155
265.39,-0.355,-0.16
265.4,-0.355,-0.18
265.4,-0.36,-0.165
265.4,-0.355,-0.16
265.41,-0.355,-0.165
265.41,-0.35,-0.155
265.41,-0.355,-0.16
265.41,-0.365,-0.18
265.42,-0.36,-0.17
265.42,-0.35,-0.155
265.42,-0.34,-0.15
265.42,-0.34,-0.15
265.43,-0.345,-0.145
265.43,-0.35,-0.14
265.43,-0.34,-0.105
265.44,-0.325,0
265.44,-0.3,0.225
265.44,-0.29,0.605
265.44,-0.26,0.865
265.45,-0.23,0.81
265.45,-0.155,0.555
265.45,0.055,0.36
265.46,0.41,0.285
265.46,0.685,0.23
265.46,0.645,0.2
265.46,0.36,0.15
265.47,0.135,0.12
265.47,0.055,0.08
265.47,0.07,0.015
265.48,0.09,-0.11
265.48,0.105,-0.265
265.48,0.1,-0.485
265.48,0.105,-0.695
265.49,0.13,-0.925
265.49,0.145,-1.17
265.49,0.145,-1.435
265.49,0.15,-1.73
265.5,0.12,-1.97
265.5,0.115,-2.145
265.5,0.12,-2.31
265.51,0.15,-2.445
265.51,0.165,-2.54
265.51,0.15,-2.63
265.51,0.125,-2.73
265.52,0.105,-2.835
265.52,0.105,-2.92
265.52,0.08,-2.97
265.52,0.025,-3.005
265.53,-0.055,-3.04
265.53,-0.11,-3.075
265.53,-0.175,-3.08
265.54,-0.22,-3.09
265.54,-0.3,-3.1
265.54,-0.385,-3.105
265.54,-0.465,-3.115
265.55,-0.495,-3.13
265.55,-0.485,-3.12
265.55,-0.435,-3.105
265.56,-0.4,-3.085
265.56,-0.385,-3.075
265.56,-0.395,-3.055
265.56,-0.41,-3.025
265.57,-0.44,-2.96
265.57,-0.45,-2.87
265.57,-0.465,-2.765
265.57,-0.485,-2.645
265.58,-0.475,-2.52
265.58,-0.48,-2.365
265.58,-0.455,-2.165
265.59,-0.43,-1.94
265.59,-0.4,-1.7
265.59,-0.4,-1.45
265.59,-0.41,-1.245
265.6,-0.425,-1.035
265.6,-0.42,-0.8
265.6,-0.42,-0.575
265.61,-0.42,-0.37
265.61,-0.425,-0.18
265.61,-0.43,-0.03
265.61,-0.45,0.12
265.62,-0.46,0.265
265.62,-0.45,0.395
265.62,-0.435,0.52
265.62,-0.445,0.59
265.63,-0.455,0.65
265.63,-0.465,0.7
265.63,-0.45,0.74
265.64,-0.455,0.795
265.64,-0.44,0.825
265.64,-0.44,0.86
265.64,-0.445,0.88
265.65,-0.455,0.9
265.65,-0.45,0.935
265.65,-0.44,0.955
265.66,-0.43,1.01
265.66,-0.435,1.015
265.66,-0.455,1.035
265.66,-0.46,1.045
265.67,-0.465,1.07
265.67,-0.47,1.115
265.67,-0.455,1.14
265.67,-0.465,1.16
265.68,-0.475,1.175
265.68,-0.475,1.2
265.68,-0.47,1.23
265.69,-0.46,1.26
265.69,-0.46,1.3
265.69,-0.455,1.325
265.69,-0.465,1.365
265.7,-0.47,1.365
265.7,-0.475,1.415
265.7,-0.47,1.455
265.71,-0.455,1.49
265.71,-0.455,1.53
265.71,-0.465,1.54
265.71,-0.47,1.56
265.72,-0.495,1.605
265.72,-0.475,1.655
265.72,-0.46,1.68
265.73,-0.465,1.71
265.73,-0.47,1.73
265.73,-0.475,1.76
265.73,-0.45,1.79
265.74,-0.43,1.825
265.74,-0.405,1.85
265.74,-0.395,1.88
265.74,-0.395,1.885
265.75,-0.405,1.895
265.75,-0.395,1.925
265.75,-0.375,1.945
265.76,-0.345,1.955
265.76,-0.34,1.955
265.76,-0.335,1.95
265.76,-0.34,1.94
265.77,-0.345,1.935
265.77,-0.335,1.925
265.77,-0.305,1.915
265.77,-0.305,1.895
265.78,-0.295,1.865
265.78,-0.31,1.825
265.78,-0.285,1.795
265.79,-0.275,1.785
265.79,-0.255,1.72
265.79,-0.23,1.675
265.79,-0.22,1.625
265.8,-0.205,1.565
265.8,-0.21,1.49
265.8,-0.19,1.455
265.81,-0.175,1.4
265.81,-0.17,1.345
265.81,-0.18,1.265
265.81,-0.18,1.195
265.82,-0.185,1.12
265.82,-0.18,1.08
265.82,-0.16,1.015
265.82,-0.15,0.945
265.83,-0.155,0.875
265.83,-0.155,0.805
265.83,-0.155,0.75
265.84,-0.155,0.705
265.84,-0.155,0.665
265.84,-0.17,0.6
265.84,-0.17,0.545
265.85,-0.185,0.49
265.85,-0.185,0.45
265.85,-0.18,0.425
265.86,-0.17,0.4
265.86,-0.175,0.355
265.86,-0.18,0.31
265.86,-0.195,0.27
265.87,-0.205,0.24
265.87,-0.2,0.23
265.87,-0.21,0.23
265.88,-0.215,0.19
265.88,-0.225,0.165
265.88,-0.245,0.135
265.88,-0.24,0.13
265.89,-0.235,0.13
265.89,-0.24,0.115
265.89,-0.25,0.1
265.89,-0.27,0.08
265.9,-0.275,0.065
265.9,-0.275,0.07
265.9,-0.265,0.065
265.91,-0.26,0.055
265.91,-0.26,0.065
265.91,-0.27,0.035
265.91,-0.275,0.025
265.92,-0.27,0.03
265.92,-0.26,0.045
265.92,-0.255,0.04
265.92,-0.25,0.035
265.93,-0.27,0.02
265.93,-0.26,0.02
265.93,-0.27,0.015
265.94,-0.26,0.025
265.94,-0.26,0.035
265.94,-0.265,0.025
265.94,-0.275,0.015
265.95,-0.285,0
265.95,-0.285,0.01
265.95,-0.28,0.03
265.96,-0.27,0.035
265.96,-0.265,0.03
265.96,-0.26,0.005
265.96,-0.275,0.005
265.97,-0.28,0.015
265.97,-0.275,0.015
265.97,-0.27,0.02
265.98,-0.265,0.035
265.98,-0.275,0.01
265.98,-0.29,0
265.98,-0.28,0.01
265.99,-0.27,0.02
265.99,-0.265,0.02
265.99,-0.265,0.015
265.99,-0.26,0.005
266,-0.275,0
266,-0.29,0
266,-0.285,0.01
266.01,-0.275,0
266.01,-0.28,0
266.01,-0.29,-0.01
266.01,-0.29,-0.015
266.02,-0.305,-0.025
266.02,-0.305,-0.005
266.02,-0.3,0
266.02,-0.305,-0.015
266.03,-0.31,-0.025
266.03,-0.305,-0.04
266.03,-0.315,-0.04
266.04,-0.31,-0.04
266.04,-0.31,-0.03
266.04,-0.305,-0.04
266.04,-0.305,-0.06
266.05,-0.3,-0.075
266.05,-0.28,-0.075
266.05,-0.29,-0.075
266.06,-0.28,-0.065
266.06,-0.285,-0.075
266.06,-0.31,-0.09
266.06,-0.325,-0.08
266.07,-0.32,-0.1
266.07,-0.32,-0.095
266.07,-0.305,-0.09
266.07,-0.285,-0.09
266.08,-0.295,-0.105
266.08,-0.31,-0.13
266.08,-0.315,-0.12
266.09,-0.315,-0.12
266.09,-0.305,-0.11
266.09,-0.31,-0.13
266.09,-0.315,-0.125
266.1,-0.33,-0.135
266.1,-0.35,-0.15
266.1,-0.335,-0.135
266.11,-0.34,-0.135
266.11,-0.335,-0.14
266.11,-0.32,-0.165
266.11,-0.325,-0.16
266.12,-0.345,-0.16
266.12,-0.345,-0.15
266.12,-0.345,-0.145
266.12,-0.335,-0.145
266.13,-0.325,-0.15
266.13,-0.3,-0.175
266.13,-0.305,-0.175
266.14,-0.29,-0.155
266.14,-0.31,-0.15
266.14,-0.315,-0.175
266.14,-0.325,-0.19
266.15,-0.31,-0.185
266.15,-0.315,-0.185
266.15,-0.295,-0.18
266.16,-0.3,-0.175
266.16,-0.305,-0.17
266.16,-0.32,-0.185
266.16,-0.32,-0.185
266.17,-0.33,-0.185
266.17,-0.34,-0.175
266.17,-0.35,-0.18
266.17,-0.335,-0.18
266.18,-0.33,-0.19
266.18,-0.335,-0.2
266.18,-0.34,-0.195
266.19,-0.345,-0.185
266.19,-0.335,-0.18
266.19,-0.325,-0.19
266.19,-0.32,-0.195
266.2,-0.32,-0.195
266.2,-0.31,-0.19
266.2,-0.305,-0.18
266.21,-0.31,-0.185
266.21,-0.315,-0.185
266.21,-0.3,-0.19
266.21,-0.31,-0.2
266.22,-0.295,-0.19
266.22,-0.295,-0.185
266.22,-0.275,-0.19
266.23,-0.275,-0.19
266.23,-0.295,-0.2
266.23,-0.32,-0.205
266.23,-0.34,-0.195
266.24,-0.315,-0.185
266.24,-0.305,-0.185
266.24,-0.305,-0.185
266.24,-0.295,-0.2
266.25,-0.305,-0.21
266.25,-0.315,-0.2
266.25,-0.315,-0.18
266.26,-0.31,-0.175
266.26,-0.3,-0.175
266.26,-0.29,-0.19
266.26,-0.28,-0.19
266.27,-0.29,-0.185
266.27,-0.255,-0.155
266.27,-0.24,-0.125
266.27,-0.24,-0.06
266.28,-0.235,0.125
266.28,-0.23,0.505
266.28,-0.19,0.825
266.29,-0.125,0.78
266.29,-0.035,0.52
266.29,0.235,0.315
266.29,0.61,0.245
266.3,0.795,0.195
266.3,0.625,0.155
266.3,0.325,0.12
266.31,0.155,0.085
266.31,0.13,0.015
266.31,0.16,-0.09
266.31,0.175,-0.23
266.32,0.17,-0.38
266.32,0.19,-0.585
266.32,0.22,-0.835
266.32,0.22,-1.08
266.33,0.205,-1.305
266.33,0.195,-1.565
266.33,0.18,-1.79
266.34,0.19,-1.98
266.34,0.195,-2.145
266.34,0.205,-2.305
266.34,0.205,-2.455
266.35,0.2,-2.55
266.35,0.175,-2.645
266.35,0.165,-2.725
266.36,0.155,-2.83
266.36,0.14,-2.945
266.36,0.075,-3.02
266.36,-0.01,-3.045
266.37,-0.09,-3.075
266.37,-0.13,-3.085
266.37,-0.175,-3.09
266.38,-0.26,-3.115
266.38,-0.37,-3.135
266.38,-0.465,-3.15
266.38,-0.525,-3.15
266.39,-0.525,-3.135
266.39,-0.505,-3.125
266.39,-0.495,-3.11
266.39,-0.505,-3.12
266.4,-0.525,-3.1
266.4,-0.54,-3.065
266.4,-0.53,-2.995
266.41,-0.535,-2.92
266.41,-0.53,-2.82
266.41,-0.535,-2.725
266.41,-0.535,-2.59
266.42,-0.53,-2.44
266.42,-0.49,-2.265
266.42,-0.465,-2.045
266.42,-0.44,-1.825
266.43,-0.425,-1.625
266.43,-0.43,-1.39
266.43,-0.415,-1.175
266.44,-0.395,-0.935
266.44,-0.39,-0.7
266.44,-0.39,-0.49
266.44,-0.39,-0.32
266.45,-0.4,-0.16
266.45,-0.41,0.015
266.45,-0.405,0.175
266.46,-0.395,0.32
266.46,-0.38,0.44
266.46,-0.375,0.53
266.46,-0.375,0.605
266.47,-0.365,0.675
266.47,-0.35,0.735
266.47,-0.345,0.775
266.48,-0.335,0.8
266.48,-0.335,0.84
266.48,-0.31,0.845
266.48,-0.305,0.865
266.49,-0.295,0.9
266.49,-0.275,0.93
266.49,-0.27,0.945
266.49,-0.28,0.955
266.5,-0.28,0.955
266.5,-0.28,0.98
266.5,-0.275,1
266.51,-0.25,1.03
266.51,-0.24,1.045
266.51,-0.25,1.06
266.51,-0.25,1.065
266.52,-0.265,1.095
266.52,-0.275,1.11
266.52,-0.265,1.15
266.52,-0.27,1.175
266.53,-0.28,1.195
266.53,-0.3,1.23
266.53,-0.295,1.27
266.54,-0.295,1.315
266.54,-0.275,1.345
266.54,-0.295,1.365
266.54,-0.31,1.39
266.55,-0.325,1.41
266.55,-0.345,1.445
266.55,-0.32,1.485
266.56,-0.315,1.515
266.56,-0.31,1.535
266.56,-0.325,1.54
266.56,-0.325,1.57
266.57,-0.33,1.6
266.57,-0.325,1.63
266.57,-0.315,1.665
266.57,-0.315,1.675
266.58,-0.32,1.685
266.58,-0.325,1.69
266.58,-0.325,1.7
266.59,-0.305,1.725
266.59,-0.305,1.74
266.59,-0.295,1.745
266.59,-0.295,1.74
266.6,-0.305,1.735
266.6,-0.31,1.75
266.6,-0.285,1.755
266.61,-0.28,1.75
266.61,-0.275,1.75
266.61,-0.28,1.715
266.61,-0.28,1.7
266.62,-0.27,1.675
266.62,-0.225,1.67
266.62,-0.22,1.635
266.62,-0.225,1.605
266.63,-0.215,1.55
266.63,-0.21,1.515
266.63,-0.205,1.49
266.64,-0.195,1.44
266.64,-0.16,1.39
266.64,-0.165,1.335
266.64,-0.18,1.27
266.65,-0.17,1.205
266.65,-0.165,1.15
266.65,-0.16,1.095
266.66,-0.135,1.03
266.66,-0.145,0.97
266.66,-0.14,0.9
266.66,-0.155,0.83
266.67,-0.14,0.77
266.67,-0.145,0.725
266.67,-0.14,0.68
266.67,-0.14,0.625
266.68,-0.145,0.565
266.68,-0.165,0.5
266.68,-0.18,0.47
266.69,-0.16,0.425
266.69,-0.155,0.39
266.69,-0.165,0.345
266.69,-0.17,0.295
266.7,-0.195,0.26
266.7,-0.205,0.24
266.7,-0.195,0.22
266.71,-0.185,0.21
266.71,-0.195,0.185
266.71,-0.21,0.15
266.71,-0.22,0.115
266.72,-0.215,0.095
266.72,-0.21,0.1
266.72,-0.205,0.095
266.73,-0.215,0.075
266.73,-0.225,0.045
266.73,-0.235,0.04
266.73,-0.26,0.035
266.74,-0.255,0.04
266.74,-0.245,0.03
266.74,-0.24,0.035
266.74,-0.25,0.015
266.75,-0.265,0.005
266.75,-0.265,0.005
266.75,-0.26,0.01
266.76,-0.25,0.005
266.76,-0.255,0
266.76,-0.26,0
266.76,-0.265,-0.02
266.77,-0.28,-0.005
266.77,-0.275,-0.005
266.77,-0.265,0
266.77,-0.265,0.005
266.78,-0.28,0.005
266.78,-0.29,-0.015
266.78,-0.295,-0.01
266.79,-0.28,0
266.79,-0.28,0
266.79,-0.275,0
266.79,-0.28,-0.015
266.8,-0.285,-0.005
266.8,-0.295,0
266.8,-0.295,-0.005
266.81,-0.285,0
266.81,-0.285,0.01
266.81,-0.285,-0.005
266.81,-0.3,-0.015
266.82,-0.305,-0.01
266.82,-0.3,0.01
266.82,-0.3,0.01
266.82,-0.295,0
266.83,-0.295,0
266.83,-0.31,0
266.83,-0.315,-0.005
266.84,-0.31,0
266.84,-0.29,0
266.84,-0.29,-0.015
266.84,-0.305,-0.02
266.85,-0.315,-0.025
266.85,-0.325,-0.03
266.85,-0.315,-0.03
266.86,-0.3,-0.025
266.86,-0.305,-0.025
266.86,-0.31,-0.045
266.86,-0.31,-0.055
266.87,-0.32,-0.05
266.87,-0.31,-0.045
266.87,-0.3,-0.045
266.88,-0.305,-0.05
266.88,-0.32,-0.055
266.88,-0.315,-0.075
266.88,-0.33,-0.08
266.89,-0.33,-0.075
266.89,-0.315,-0.075
266.89,-0.325,-0.075
266.89,-0.34,-0.09
266.9,-0.33,-0.1
266.9,-0.34,-0.105
266.9,-0.335,-0.11
266.91,-0.32,-0.1
266.91,-0.325,-0.105
266.91,-0.32,-0.125
266.91,-0.335,-0.13
266.92,-0.34,-0.125
266.92,-0.325,-0.12
266.92,-0.33,-0.125
266.92,-0.335,-0.12
266.93,-0.345,-0.14
266.93,-0.345,-0.145
266.93,-0.36,-0.15
266.94,-0.35,-0.14
266.94,-0.33,-0.15
266.94,-0.33,-0.145
266.94,-0.33,-0.17
266.95,-0.345,-0.18
266.95,-0.34,-0.165
266.95,-0.34,-0.165
266.96,-0.34,-0.17
266.96,-0.34,-0.17
266.96,-0.34,-0.185
266.96,-0.355,-0.19
266.97,-0.355,-0.18
266.97,-0.345,-0.17
266.97,-0.345,-0.18
266.98,-0.345,-0.175
266.98,-0.35,-0.185
266.98,-0.36,-0.19
266.98,-0.355,-0.19
266.99,-0.35,-0.18
266.99,-0.34,-0.185
266.99,-0.345,-0.19
266.99,-0.355,-0.19
267,-0.355,-0.205
267,-0.355,-0.2
267,-0.355,-0.2
267.01,-0.345,-0.18
267.01,-0.35,-0.195
267.01,-0.36,-0.2
267.01,-0.36,-0.225
267.02,-0.36,-0.2
267.02,-0.355,-0.195
267.02,-0.35,-0.19
267.02,-0.345,-0.2
267.03,-0.355,-0.21
267.03,-0.355,-0.21
267.03,-0.36,-0.21
267.04,-0.36,-0.205
267.04,-0.35,-0.2
267.04,-0.355,-0.195
267.04,-0.36,-0.205
267.05,-0.355,-0.22
267.05,-0.35,-0.215
267.05,-0.35,-0.2
267.06,-0.345,-0.205
267.06,-0.35,-0.205
267.06,-0.365,-0.22
267.06,-0.35,-0.225
267.07,-0.365,-0.21
267.07,-0.36,-0.2
267.07,-0.33,-0.205
267.07,-0.33,-0.205
267.08,-0.335,-0.215
267.08,-0.335,-0.225
267.08,-0.345,-0.205
267.09,-0.33,-0.21
267.09,-0.325,-0.2
267.09,-0.32,-0.2
267.09,-0.325,-0.215
267.1,-0.34,-0.215
267.1,-0.345,-0.21
267.1,-0.33,-0.195
267.11,-0.32,-0.19
267.11,-0.305,-0.19
267.11,-0.32,-0.18
267.11,-0.32,-0.16
267.12,-0.315,-0.09
267.12,-0.295,0.125
267.12,-0.265,0.51
267.12,-0.225,0.845
267.13,-0.18,0.82
267.13,-0.07,0.545
267.13,0.185,0.31
267.14,0.585,0.25
267.14,0.815,0.22
267.14,0.675,0.195
267.14,0.345,0.13
267.15,0.11,0.12
267.15,0.055,0.075
267.15,0.09,0.04
267.16,0.12,-0.05
267.16,0.13,-0.185
267.16,0.125,-0.345
267.16,0.13,-0.565
267.17,0.145,-0.785
267.17,0.165,-1.005
267.17,0.195,-1.26
267.17,0.2,-1.525
267.18,0.2,-1.78
267.18,0.175,-1.99
267.18,0.165,-2.185
267.19,0.18,-2.345
267.19,0.2,-2.475
267.19,0.205,-2.565
267.19,0.19,-2.67
267.2,0.155,-2.805
267.2,0.14,-2.915
267.2,0.125,-2.99
267.21,0.095,-3.035
267.21,0.03,-3.08
267.21,-0.055,-3.105
267.21,-0.105,-3.13
267.22,-0.16,-3.155
267.22,-0.23,-3.155
267.22,-0.31,-3.15
267.23,-0.385,-3.16
267.23,-0.43,-3.175
267.23,-0.43,-3.175
267.23,-0.405,-3.165
267.24,-0.38,-3.155
267.24,-0.35,-3.125
267.24,-0.375,-3.105
267.24,-0.4,-3.07
267.25,-0.43,-3.02
267.25,-0.445,-2.92
267.25,-0.455,-2.785
267.26,-0.46,-2.65
267.26,-0.455,-2.495
267.26,-0.455,-2.305
267.26,-0.455,-2.09
267.27,-0.45,-1.83
267.27,-0.43,-1.58
267.27,-0.425,-1.36
267.27,-0.405,-1.15
267.28,-0.425,-0.935
267.28,-0.435,-0.72
267.28,-0.43,-0.49
267.29,-0.435,-0.31
267.29,-0.43,-0.145
267.29,-0.445,0.02
267.29,-0.465,0.165
267.3,-0.48,0.31
267.3,-0.47,0.44
267.3,-0.44,0.54
267.31,-0.42,0.615
267.31,-0.41,0.665
267.31,-0.42,0.71
267.31,-0.42,0.745
267.32,-0.42,0.795
267.32,-0.415,0.83
267.32,-0.41,0.875
267.32,-0.405,0.9
267.33,-0.4,0.93
267.33,-0.415,0.96
267.33,-0.415,1
267.34,-0.415,1.04
267.34,-0.4,1.065
267.34,-0.4,1.09
267.34,-0.405,1.095
267.35,-0.425,1.12
267.35,-0.43,1.15
267.35,-0.415,1.19
267.36,-0.395,1.225
267.36,-0.41,1.26
267.36,-0.405,1.275
267.36,-0.42,1.305
267.37,-0.415,1.34
267.37,-0.4,1.38
267.37,-0.39,1.425
267.38,-0.385,1.46
267.38,-0.4,1.48
267.38,-0.405,1.51
267.38,-0.41,1.535
267.39,-0.39,1.57
267.39,-0.385,1.625
267.39,-0.395,1.65
267.39,-0.39,1.655
267.4,-0.4,1.675
267.4,-0.395,1.725
267.4,-0.39,1.76
267.41,-0.375,1.78
267.41,-0.355,1.815
267.41,-0.365,1.825
267.41,-0.365,1.84
267.42,-0.37,1.875
267.42,-0.355,1.905
267.42,-0.335,1.93
267.42,-0.32,1.94
267.43,-0.335,1.95
267.43,-0.335,1.945
267.43,-0.335,1.97
267.44,-0.325,1.98
267.44,-0.295,1.975
267.44,-0.295,1.98
267.44,-0.285,1.965
267.45,-0.285,1.95
267.45,-0.28,1.925
267.45,-0.27,1.92
267.46,-0.25,1.895
267.46,-0.245,1.85
267.46,-0.23,1.8
267.46,-0.22,1.755
267.47,-0.205,1.705
267.47,-0.185,1.655
267.47,-0.175,1.605
267.48,-0.17,1.54
267.48,-0.18,1.47
267.48,-0.165,1.395
267.48,-0.16,1.315
267.49,-0.125,1.265
267.49,-0.11,1.19
267.49,-0.105,1.115
267.49,-0.115,1.02
267.5,-0.125,0.95
267.5,-0.13,0.885
267.5,-0.11,0.83
267.51,-0.115,0.775
267.51,-0.115,0.7
267.51,-0.125,0.635
267.51,-0.13,0.575
267.52,-0.155,0.54
267.52,-0.13,0.515
267.52,-0.135,0.475
267.52,-0.15,0.435
267.53,-0.165,0.36
267.53,-0.195,0.315
267.53,-0.22,0.3
267.54,-0.22,0.27
267.54,-0.215,0.25
267.54,-0.21,0.215
267.54,-0.22,0.18
267.55,-0.225,0.15
267.55,-0.235,0.14
267.55,-0.245,0.125
267.56,-0.235,0.12
267.56,-0.235,0.1
267.56,-0.26,0.075
267.56,-0.265,0.05
267.57,-0.265,0.045
267.57,-0.265,0.04
267.57,-0.25,0.04
267.57,-0.265,0.025
267.58,-0.275,0.01
267.58,-0.29,-0.005
267.58,-0.285,-0.01
267.59,-0.285,0
267.59,-0.28,-0.005
267.59,-0.28,-0.005
267.59,-0.28,-0.02
267.6,-0.3,-0.035
267.6,-0.295,-0.03
267.6,-0.29,-0.025
267.61,-0.27,-0.02
267.61,-0.28,-0.035
267.61,-0.285,-0.03
267.61,-0.295,-0.04
267.62,-0.305,-0.03
267.62,-0.29,-0.03
267.62,-0.285,-0.03
267.62,-0.29,-0.035
267.63,-0.305,-0.04
267.63,-0.305,-0.04
267.63,-0.31,-0.04
267.64,-0.31,-0.025
267.64,-0.3,-0.025
267.64,-0.3,-0.025
267.64,-0.32,-0.04
267.65,-0.315,-0.035
267.65,-0.325,-0.035
267.65,-0.31,-0.02
267.66,-0.31,-0.025
267.66,-0.31,-0.025
267.66,-0.32,-0.03
267.66,-0.33,-0.045
267.67,-0.34,-0.04
267.67,-0.325,-0.03
267.67,-0.32,-0.04
267.67,-0.315,-0.045
267.68,-0.32,-0.05
267.68,-0.325,-0.06
267.68,-0.335,-0.065
267.69,-0.325,-0.05
267.69,-0.335,-0.06
267.69,-0.32,-0.065
267.69,-0.33,-0.07
267.7,-0.34,-0.08
267.7,-0.34,-0.075
267.7,-0.32,-0.07
267.71,-0.32,-0.07
267.71,-0.33,-0.07
267.71,-0.33,-0.105
267.71,-0.345,-0.115
267.72,-0.34,-0.105
267.72,-0.345,-0.105
267.72,-0.32,-0.105
267.73,-0.33,-0.11
267.73,-0.35,-0.135
267.73,-0.355,-0.145
267.73,-0.35,-0.145
267.74,-0.35,-0.125
267.74,-0.345,-0.135
267.74,-0.35,-0.14
267.74,-0.35,-0.16
267.75,-0.36,-0.16
267.75,-0.365,-0.16
267.75,-0.355,-0.16
267.76,-0.34,-0.155
267.76,-0.35,-0.17
267.76,-0.37,-0.185
267.76,-0.38,-0.185
267.77,-0.375,-0.185
267.77,-0.37,-0.17
267.77,-0.355,-0.18
267.77,-0.36,-0.185
267.78,-0.37,-0.195
267.78,-0.365,-0.205
267.78,-0.38,-0.19
267.79,-0.365,-0.19
267.79,-0.35,-0.185
267.79,-0.355,-0.195
267.79,-0.38,-0.215
267.8,-0.385,-0.215
267.8,-0.39,-0.21
267.8,-0.38,-0.195
267.81,-0.37,-0.2
267.81,-0.37,-0.2
267.81,-0.375,-0.215
267.81,-0.39,-0.22
267.82,-0.39,-0.225
267.82,-0.385,-0.215
267.82,-0.36,-0.205
267.82,-0.375,-0.2
267.83,-0.38,-0.225
267.83,-0.385,-0.225
267.83,-0.38,-0.22
267.84,-0.37,-0.21
267.84,-0.375,-0.21
267.84,-0.365,-0.225
267.84,-0.38,-0.22
267.85,-0.385,-0.235
267.85,-0.39,-0.23
267.85,-0.39,-0.225
267.86,-0.375,-0.21
267.86,-0.37,-0.215
267.86,-0.385,-0.235
267.86,-0.4,-0.24
267.87,-0.4,-0.225
267.87,-0.39,-0.22
267.87,-0.365,-0.215
267.88,-0.38,-0.225
267.88,-0.38,-0.23
267.88,-0.385,-0.24
267.88,-0.385,-0.235
267.89,-0.37,-0.215
267.89,-0.365,-0.23
267.89,-0.365,-0.22
