5.4806,-0.365,-0.505
5.4833,-0.39,-0.46
5.4861,-0.44,-0.43
5.4889,-0.49,-0.41
5.4917,-0.515,-0.38
5.4944,-0.51,-0.37
5.4972,-0.445,-0.37
5.5,-0.335,-0.4
5.5028,-0.21,-0.44
5.5056,-0.09,-0.49
5.5083,0.03,-0.57
5.5111,0.115,-0.66
5.5139,0.18,-0.75
5.5167,0.19,-0.81
5.5194,0.245,-0.915
5.5222,0.29,-1.03
5.525,0.33,-1.155
5.5278,0.36,-1.265
5.5306,0.41,-1.39
5.5333,0.425,-1.49
5.5361,0.435,-1.54
5.5389,0.4,-1.535
5.5417,0.365,-1.525
5.5444,0.36,-1.475
5.5472,0.34,-1.435
5.55,0.3,-1.39
5.5528,0.215,-1.345
5.5556,0.155,-1.29
5.5583,0.09,-1.225
5.5611,0.045,-1.16
5.5639,-0.015,-1.105
5.5667,-0.09,-1.07
5.5694,-0.185,-1.03
5.5722,-0.32,-1.01
5.575,-0.445,-0.985
5.5778,-0.555,-0.93
5.5806,-0.645,-0.875
5.5833,-0.75,-0.835
5.5861,-0.87,-0.805
5.5889,-0.96,-0.78
5.5917,-0.985,-0.725
5.5944,-0.965,-0.685
5.5972,-0.945,-0.665
5.6,-0.945,-0.655
5.6028,-0.985,-0.635
5.6056,-1.005,-0.605
5.6083,-0.995,-0.58
5.6111,-0.955,-0.535
5.6139,-0.89,-0.535
5.6167,-0.84,-0.52
5.6194,-0.815,-0.505
5.6222,-0.835,-0.505
5.625,-0.85,-0.46
5.6278,-0.865,-0.41
5.6306,-0.865,-0.37
5.6333,-0.835,-0.365
5.6361,-0.785,-0.365
5.6389,-0.715,-0.355
5.6417,-0.655,-0.33
5.6444,-0.64,-0.325
5.6472,-0.645,-0.31
5.65,-0.67,-0.32
5.6528,-0.685,-0.32
5.6556,-0.69,-0.32
5.6583,-0.665,-0.305
5.6611,-0.635,-0.3
5.6639,-0.615,-0.31
5.6667,-0.615,-0.315
5.6694,-0.615,-0.33
5.6722,-0.615,-0.33
5.675,-0.62,-0.315
5.6778,-0.61,-0.295
5.6806,-0.6,-0.3
5.6833,-0.595,-0.31
5.6861,-0.615,-0.31
5.6889,-0.625,-0.315
5.6917,-0.635,-0.31
5.6944,-0.635,-0.28
5.6972,-0.645,-0.28
5.7,-0.615,-0.285
5.7028,-0.62,-0.29
5.7056,-0.63,-0.29
5.7083,-0.635,-0.28
5.7111,-0.625,-0.285
5.7139,-0.6,-0.26
5.7167,-0.595,-0.275
5.7194,-0.6,-0.285
5.7222,-0.6,-0.29
5.725,-0.6,-0.28
5.7278,-0.595,-0.27
5.7306,-0.57,-0.255
5.7333,-0.57,-0.265
5.7361,-0.575,-0.27
5.7389,-0.565,-0.27
5.7417,-0.545,-0.265
5.7444,-0.535,-0.25
5.7472,-0.525,-0.255
5.75,-0.53,-0.255
5.7528,-0.545,-0.275
5.7556,-0.55,-0.27
5.7583,-0.54,-0.27
5.7611,-0.52,-0.265
5.7639,-0.52,-0.26
5.7667,-0.505,-0.275
5.7694,-0.495,-0.275
5.7722,-0.505,-0.285
5.775,-0.49,-0.28
5.7778,-0.475,-0.27
5.7806,-0.44,-0.275
5.7833,-0.435,-0.28
5.7861,-0.435,-0.29
5.7889,-0.42,-0.305
5.7917,-0.4,-0.3
5.7944,-0.385,-0.295
5.7972,-0.37,-0.3
5.8,-0.355,-0.305
5.8028,-0.35,-0.325
5.8056,-0.35,-0.345
5.8083,-0.335,-0.325
5.8111,-0.32,-0.325
5.8139,-0.31,-0.34
5.8167,-0.28,-0.35
5.8194,-0.285,-0.36
5.8222,-0.29,-0.365
5.825,-0.275,-0.355
5.8278,-0.265,-0.345
5.8306,-0.245,-0.355
5.8333,-0.24,-0.36
5.8361,-0.245,-0.385
5.8389,-0.25,-0.405
5.8417,-0.25,-0.39
5.8444,-0.22,-0.39
5.8472,-0.21,-0.395
5.85,-0.21,-0.41
5.8528,-0.195,-0.425
5.8556,-0.2,-0.43
5.8583,-0.185,-0.43
5.8611,-0.175,-0.415
5.8639,-0.155,-0.42
5.8667,-0.165,-0.44
5.8694,-0.165,-0.455
5.8722,-0.175,-0.475
5.875,-0.155,-0.455
5.8778,-0.135,-0.47
5.8806,-0.12,-0.465
5.8833,-0.125,-0.465
5.8861,-0.145,-0.485
5.8889,-0.155,-0.495
5.8917,-0.15,-0.485
5.8944,-0.15,-0.485
5.8972,-0.135,-0.495
5.9,-0.15,-0.51
5.9028,-0.16,-0.53
5.9056,-0.18,-0.53
5.9083,-0.165,-0.52
5.9111,-0.145,-0.525
5.9139,-0.15,-0.53
5.9167,-0.15,-0.525
5.9194,-0.135,-0.55
5.9222,-0.145,-0.555
5.925,-0.145,-0.555
5.9278,-0.135,-0.545
5.9306,-0.145,-0.54
5.9333,-0.155,-0.54
5.9361,-0.17,-0.56
5.9389,-0.2,-0.555
5.9417,-0.205,-0.545
5.9444,-0.205,-0.53
5.9472,-0.195,-0.54
5.95,-0.18,-0.545
5.9528,-0.195,-0.545
5.9556,-0.185,-0.545
5.9583,-0.16,-0.53
5.9611,-0.16,-0.53
5.9639,-0.17,-0.5
5.9667,-0.225,-0.51
5.9694,-0.27,-0.525
5.9722,-0.29,-0.54
5.975,-0.31,-0.52
5.9778,-0.31,-0.505
5.9806,-0.335,-0.5
5.9833,-0.355,-0.495
5.9861,-0.39,-0.5
5.9889,-0.41,-0.505
5.9917,-0.42,-0.5
5.9944,-0.435,-0.485
5.9972,-0.42,-0.485
6,-0.415,-0.49
6.0028,-0.44,-0.495
6.0056,-0.445,-0.505
6.0083,-0.455,-0.495
6.0111,-0.435,-0.495
6.0139,-0.43,-0.5
6.0167,-0.42,-0.5
6.0194,-0.435,-0.505
6.0222,-0.45,-0.525
6.025,-0.455,-0.51
6.0278,-0.445,-0.51
6.0306,-0.445,-0.515
6.0333,-0.425,-0.52
6.0361,-0.435,-0.52
6.0389,-0.435,-0.525
6.0417,-0.445,-0.525
6.0444,-0.43,-0.515
6.0472,-0.42,-0.52
6.05,-0.425,-0.525
6.0528,-0.43,-0.525
6.0556,-0.44,-0.53
6.0583,-0.435,-0.51
6.0611,-0.415,-0.505
6.0639,-0.405,-0.52
6.0667,-0.41,-0.53
6.0694,-0.415,-0.545
6.0722,-0.435,-0.53
6.075,-0.42,-0.525
6.0778,-0.41,-0.515
6.0806,-0.42,-0.52
6.0833,-0.41,-0.525
6.0861,-0.44,-0.525
6.0889,-0.45,-0.54
6.0917,-0.44,-0.525
6.0944,-0.405,-0.525
6.0972,-0.41,-0.53
6.1,-0.4,-0.53
6.1028,-0.41,-0.535
6.1056,-0.405,-0.52
6.1083,-0.42,-0.49
6.1111,-0.42,-0.45
6.1139,-0.43,-0.43
6.1167,-0.435,-0.415
6.1194,-0.445,-0.42
6.1222,-0.415,-0.43
6.125,-0.325,-0.465
6.1278,-0.185,-0.5
6.1306,-0.07,-0.575
6.1333,0,-0.685
6.1361,0.025,-0.785
6.1389,0.035,-0.865
6.1417,0.095,-0.98
6.1444,0.185,-1.13
6.1472,0.3,-1.33
6.15,0.385,-1.515
6.1528,0.435,-1.62
6.1556,0.43,-1.645
6.1583,0.435,-1.635
6.1611,0.43,-1.62
6.1639,0.43,-1.59
6.1667,0.405,-1.535
6.1694,0.36,-1.485
6.1722,0.275,-1.43
6.175,0.21,-1.375
6.1778,0.16,-1.285
6.1806,0.115,-1.235
6.1833,0.045,-1.165
6.1861,-0.045,-1.125
6.1889,-0.17,-1.09
6.1917,-0.29,-1.035
6.1944,-0.41,-0.975
6.1972,-0.535,-0.93
6.2,-0.67,-0.905
6.2028,-0.775,-0.875
6.2056,-0.855,-0.85
6.2083,-0.89,-0.805
6.2111,-0.915,-0.775
6.2139,-0.92,-0.74
6.2167,-0.92,-0.73
6.2194,-0.895,-0.705
6.2222,-0.905,-0.675
6.225,-0.92,-0.645
6.2278,-0.9,-0.615
6.2306,-0.85,-0.585
6.2333,-0.8,-0.55
6.2361,-0.78,-0.55
6.2389,-0.765,-0.52
6.2417,-0.755,-0.5
6.2444,-0.72,-0.47
6.2472,-0.675,-0.445
6.25,-0.65,-0.445
6.2528,-0.645,-0.435
6.2556,-0.63,-0.435
6.2583,-0.605,-0.405
6.2611,-0.59,-0.39
6.2639,-0.585,-0.395
6.2667,-0.575,-0.38
6.2694,-0.575,-0.39
6.2722,-0.58,-0.405
6.275,-0.575,-0.4
6.2778,-0.56,-0.39
6.2806,-0.555,-0.385
6.2833,-0.57,-0.385
6.2861,-0.585,-0.395
6.2889,-0.6,-0.38
6.2917,-0.58,-0.37
6.2944,-0.575,-0.365
6.2972,-0.57,-0.365
6.3,-0.57,-0.37
6.3028,-0.575,-0.35
6.3056,-0.595,-0.34
6.3083,-0.575,-0.34
6.3111,-0.56,-0.325
6.3139,-0.56,-0.31
6.3167,-0.565,-0.325
6.3194,-0.575,-0.34
6.3222,-0.585,-0.34
6.325,-0.58,-0.325
6.3278,-0.565,-0.305
6.3306,-0.56,-0.305
6.3333,-0.555,-0.315
6.3361,-0.57,-0.32
6.3389,-0.58,-0.31
6.3417,-0.565,-0.315
6.3444,-0.555,-0.3
6.3472,-0.535,-0.305
6.35,-0.525,-0.3
6.3528,-0.55,-0.31
6.3556,-0.535,-0.325
6.3583,-0.52,-0.31
6.3611,-0.51,-0.305
6.3639,-0.5,-0.295
6.3667,-0.485,-0.31
6.3694,-0.495,-0.315
6.3722,-0.49,-0.33
6.375,-0.48,-0.31
6.3778,-0.465,-0.315
6.3806,-0.445,-0.32
6.3833,-0.435,-0.325
6.3861,-0.415,-0.345
6.3889,-0.415,-0.35
6.3917,-0.4,-0.35
6.3944,-0.385,-0.335
6.3972,-0.395,-0.34
6.4,-0.375,-0.34
6.4028,-0.35,-0.37
6.4056,-0.34,-0.38
6.4083,-0.34,-0.36
6.4111,-0.305,-0.37
6.4139,-0.295,-0.375
6.4167,-0.275,-0.37
6.4194,-0.28,-0.395
6.4222,-0.275,-0.415
6.425,-0.255,-0.4
6.4278,-0.245,-0.4
6.4306,-0.23,-0.4
6.4333,-0.225,-0.415
6.4361,-0.23,-0.445
6.4389,-0.225,-0.45
6.4417,-0.205,-0.45
6.4444,-0.2,-0.44
6.4472,-0.175,-0.465
6.45,-0.18,-0.46
6.4528,-0.175,-0.47
6.4556,-0.155,-0.485
6.4583,-0.165,-0.465
6.4611,-0.14,-0.475
6.4639,-0.135,-0.465
6.4667,-0.11,-0.485
6.4694,-0.125,-0.49
6.4722,-0.115,-0.51
6.475,-0.1,-0.49
6.4778,-0.08,-0.49
6.4806,-0.085,-0.51
6.4833,-0.08,-0.515
6.4861,-0.08,-0.515
6.4889,-0.1,-0.53
6.4917,-0.105,-0.535
6.4944,-0.11,-0.545
6.4972,-0.115,-0.54
6.5,-0.12,-0.54
6.5028,-0.11,-0.55
6.5056,-0.12,-0.555
6.5083,-0.095,-0.56
6.5111,-0.085,-0.54
6.5139,-0.075,-0.55
6.5167,-0.07,-0.555
6.5194,-0.085,-0.565
6.5222,-0.11,-0.58
6.525,-0.105,-0.565
6.5278,-0.09,-0.55
6.5306,-0.095,-0.555
6.5333,-0.1,-0.55
6.5361,-0.115,-0.555
6.5389,-0.135,-0.56
6.5417,-0.14,-0.555
6.5444,-0.145,-0.54
6.5472,-0.14,-0.545
6.55,-0.135,-0.55
6.5528,-0.14,-0.555
6.5556,-0.155,-0.54
6.5583,-0.165,-0.52
6.5611,-0.19,-0.51
6.5639,-0.21,-0.505
6.5667,-0.245,-0.52
6.5694,-0.265,-0.525
6.5722,-0.3,-0.525
6.575,-0.32,-0.51
6.5778,-0.35,-0.5
6.5806,-0.355,-0.505
6.5833,-0.375,-0.505
6.5861,-0.405,-0.52
6.5889,-0.405,-0.515
6.5917,-0.4,-0.505
6.5944,-0.395,-0.495
6.5972,-0.4,-0.505
6.6,-0.4,-0.5
6.6028,-0.41,-0.52
6.6056,-0.42,-0.525
6.6083,-0.42,-0.505
6.6111,-0.405,-0.5
6.6139,-0.41,-0.505
6.6167,-0.405,-0.5
6.6194,-0.41,-0.515
6.6222,-0.43,-0.52
6.625,-0.425,-0.515
6.6278,-0.405,-0.51
6.6306,-0.39,-0.52
6.6333,-0.4,-0.52
6.6361,-0.405,-0.535
6.6389,-0.425,-0.535
6.6417,-0.415,-0.525
6.6444,-0.39,-0.52
6.6472,-0.4,-0.52
6.65,-0.39,-0.5
6.6528,-0.395,-0.515
6.6556,-0.4,-0.525
6.6583,-0.405,-0.52
6.6611,-0.405,-0.51
6.6639,-0.4,-0.515
6.6667,-0.395,-0.525
6.6694,-0.41,-0.54
6.6722,-0.425,-0.545
6.675,-0.405,-0.54
6.6778,-0.39,-0.525
6.6806,-0.38,-0.515
6.6833,-0.375,-0.525
6.6861,-0.4,-0.535
6.6889,-0.405,-0.54
6.6917,-0.395,-0.535
6.6944,-0.37,-0.515
6.6972,-0.365,-0.52
6.7,-0.36,-0.515
6.7028,-0.38,-0.52
6.7056,-0.395,-0.49
6.7083,-0.405,-0.47
6.7111,-0.405,-0.44
6.7139,-0.415,-0.42
6.7167,-0.42,-0.405
6.7194,-0.425,-0.405
6.7222,-0.375,-0.445
6.725,-0.255,-0.47
6.7278,-0.135,-0.51
6.7306,-0.015,-0.59
6.7333,0.06,-0.7
6.7361,0.08,-0.79
6.7389,0.09,-0.88
6.7417,0.16,-0.97
6.7444,0.27,-1.11
6.7472,0.395,-1.31
6.75,0.49,-1.48
6.7528,0.555,-1.6
6.7556,0.59,-1.645
6.7583,0.615,-1.65
6.7611,0.615,-1.635
6.7639,0.605,-1.61
6.7667,0.58,-1.56
6.7694,0.525,-1.515
6.7722,0.43,-1.45
6.775,0.355,-1.375
6.7778,0.295,-1.305
6.7806,0.24,-1.24
6.7833,0.165,-1.17
6.7861,0.06,-1.135
6.7889,-0.095,-1.07
6.7917,-0.255,-1
6.7944,-0.4,-0.945
6.7972,-0.525,-0.9
6.8,-0.65,-0.885
6.8028,-0.765,-0.86
6.8056,-0.835,-0.825
6.8083,-0.87,-0.785
6.8111,-0.88,-0.735
6.8139,-0.87,-0.7
6.8167,-0.88,-0.685
6.8194,-0.88,-0.67
6.8222,-0.89,-0.65
6.825,-0.88,-0.61
6.8278,-0.87,-0.58
6.8306,-0.835,-0.555
6.8333,-0.795,-0.515
6.8361,-0.785,-0.51
6.8389,-0.76,-0.48
6.8417,-0.73,-0.445
6.8444,-0.705,-0.41
6.8472,-0.67,-0.4
6.85,-0.65,-0.395
6.8528,-0.65,-0.38
6.8556,-0.635,-0.37
6.8583,-0.605,-0.365
6.8611,-0.575,-0.345
6.8639,-0.555,-0.33
6.8667,-0.55,-0.335
6.8694,-0.555,-0.33
6.8722,-0.56,-0.34
6.875,-0.54,-0.325
6.8778,-0.54,-0.31
6.8806,-0.545,-0.315
6.8833,-0.545,-0.315
6.8861,-0.54,-0.32
6.8889,-0.55,-0.32
6.8917,-0.56,-0.315
6.8944,-0.545,-0.285
6.8972,-0.535,-0.295
6.9,-0.53,-0.295
6.9028,-0.54,-0.3
6.9056,-0.56,-0.295
6.9083,-0.55,-0.29
6.9111,-0.545,-0.27
6.9139,-0.535,-0.26
6.9167,-0.53,-0.27
6.9194,-0.545,-0.275
6.9222,-0.555,-0.275
6.925,-0.555,-0.255
6.9278,-0.54,-0.245
6.9306,-0.525,-0.24
6.9333,-0.515,-0.24
6.9361,-0.52,-0.255
6.9389,-0.535,-0.25
6.9417,-0.525,-0.225
6.9444,-0.5,-0.23
6.9472,-0.495,-0.225
6.95,-0.49,-0.235
6.9528,-0.495,-0.24
6.9556,-0.495,-0.25
6.9583,-0.495,-0.235
6.9611,-0.465,-0.23
6.9639,-0.465,-0.22
6.9667,-0.45,-0.22
6.9694,-0.46,-0.235
6.9722,-0.46,-0.23
6.975,-0.435,-0.22
6.9778,-0.415,-0.205
6.9806,-0.42,-0.215
6.9833,-0.405,-0.225
6.9861,-0.41,-0.23
6.9889,-0.41,-0.235
6.9917,-0.38,-0.23
6.9944,-0.365,-0.205
6.9972,-0.33,-0.215
7,-0.325,-0.22
7.0028,-0.315,-0.24
7.0056,-0.315,-0.255
7.0083,-0.315,-0.25
7.0111,-0.285,-0.24
7.0139,-0.26,-0.23
7.0167,-0.24,-0.23
7.0194,-0.23,-0.235
7.0222,-0.235,-0.265
7.025,-0.235,-0.275
7.0278,-0.22,-0.275
7.0306,-0.205,-0.255
7.0333,-0.185,-0.245
7.0361,-0.2,-0.255
7.0389,-0.2,-0.26
7.0417,-0.18,-0.3
7.0444,-0.16,-0.325
7.0472,-0.13,-0.365
7.05,-0.115,-0.36
7.0528,-0.115,-0.36
7.0556,-0.135,-0.355
7.0583,-0.13,-0.355
7.0611,-0.125,-0.37
7.0639,-0.105,-0.38
7.0667,-0.105,-0.375
7.0694,-0.095,-0.385
7.0722,-0.08,-0.385
7.075,-0.055,-0.39
7.0778,-0.01,-0.375
7.0806,0.01,-0.405
7.0833,0.01,-0.415
7.0861,-0.02,-0.43
7.0889,-0.035,-0.435
7.0917,0.005,-0.44
7.0944,0.05,-0.44
7.0972,0.065,-0.46
7.1,0.015,-0.46
7.1028,-0.065,-0.465
7.1056,-0.15,-0.435
7.1083,-0.18,-0.43
7.1111,-0.165,-0.41
7.1139,-0.145,-0.41
7.1167,-0.115,-0.42
7.1194,-0.105,-0.42
7.1222,-0.095,-0.45
7.125,-0.075,-0.42
7.1278,-0.065,-0.42
7.1306,-0.065,-0.43
7.1333,-0.08,-0.43
7.1361,-0.08,-0.44
7.1389,-0.07,-0.44
7.1417,-0.07,-0.425
7.1444,-0.06,-0.4
7.1472,-0.06,-0.415
7.15,-0.06,-0.4
7.1528,-0.075,-0.425
7.1556,-0.105,-0.435
7.1583,-0.115,-0.4
7.1611,-0.115,-0.34
7.1639,-0.115,-0.26
7.1667,-0.11,-0.235
7.1694,-0.11,-0.285
7.1722,-0.135,-0.35
7.175,-0.155,-0.43
7.1778,-0.175,-0.47
7.1806,-0.2,-0.5
7.1833,-0.22,-0.515
7.1861,-0.245,-0.525
7.1889,-0.26,-0.515
7.1917,-0.255,-0.49
7.1944,-0.26,-0.465
7.1972,-0.28,-0.45
7.2,-0.32,-0.425
7.2028,-0.35,-0.43
7.2056,-0.365,-0.43
7.2083,-0.34,-0.42
7.2111,-0.265,-0.41
7.2139,-0.205,-0.435
7.2167,-0.185,-0.46
7.2194,-0.225,-0.46
7.2222,-0.3,-0.44
7.225,-0.36,-0.425
7.2278,-0.405,-0.37
7.2306,-0.435,-0.35
7.2333,-0.455,-0.32
7.2361,-0.475,-0.305
7.2389,-0.475,-0.295
7.2417,-0.455,-0.23
7.2444,-0.445,-0.195
7.2472,-0.425,-0.175
7.25,-0.4,-0.145
7.2528,-0.395,-0.165
7.2556,-0.4,-0.21
7.2583,-0.425,-0.29
7.2611,-0.43,-0.355
7.2639,-0.415,-0.44
7.2667,-0.39,-0.48
7.2694,-0.385,-0.485
7.2722,-0.41,-0.415
7.275,-0.425,-0.33
7.2778,-0.425,-0.285
7.2806,-0.4,-0.335
7.2833,-0.375,-0.435
7.2861,-0.355,-0.525
7.2889,-0.355,-0.575
7.2917,-0.345,-0.57
7.2944,-0.33,-0.535
7.2972,-0.295,-0.515
7.3,-0.275,-0.495
7.3028,-0.26,-0.49
7.3056,-0.285,-0.48
7.3083,-0.285,-0.46
7.3111,-0.3,-0.45
7.3139,-0.33,-0.44
7.3167,-0.35,-0.43
7.3194,-0.35,-0.43
7.3222,-0.325,-0.41
7.325,-0.315,-0.385
7.3278,-0.33,-0.345
7.3306,-0.355,-0.32
7.3333,-0.355,-0.295
7.3361,-0.325,-0.305
7.3389,-0.235,-0.315
7.3417,-0.145,-0.345
7.3444,-0.07,-0.36
7.3472,-0.04,-0.41
7.35,0.005,-0.475
7.3528,0.065,-0.55
7.3556,0.14,-0.59
7.3583,0.23,-0.595
7.3611,0.33,-0.625
7.3639,0.405,-0.705
7.3667,0.435,-0.82
7.3694,0.46,-0.97
7.3722,0.52,-1.13
7.375,0.625,-1.255
7.3778,0.695,-1.27
7.3806,0.7,-1.215
7.3833,0.65,-1.125
7.3861,0.595,-1.095
7.3889,0.575,-1.185
7.3917,0.595,-1.275
7.3944,0.6,-1.26
7.3972,0.55,-1.145
7.4,0.475,-0.935
7.4028,0.405,-0.865
7.4056,0.33,-0.955
7.4083,0.265,-1.15
7.4111,0.195,-1.32
7.4139,0.1,-1.385
7.4167,-0.045,-1.33
7.4194,-0.215,-1.205
7.4222,-0.405,-1.07
7.425,-0.56,-0.94
7.4278,-0.69,-0.835
7.4306,-0.75,-0.775
7.4333,-0.8,-0.725
7.4361,-0.85,-0.685
7.4389,-0.92,-0.63
7.4417,-0.945,-0.595
7.4444,-0.955,-0.56
7.4472,-0.945,-0.535
7.45,-0.915,-0.505
7.4528,-0.93,-0.49
7.4556,-0.92,-0.47
7.4583,-0.865,-0.425
7.4611,-0.81,-0.375
7.4639,-0.77,-0.36
7.4667,-0.74,-0.35
7.4694,-0.715,-0.34
7.4722,-0.68,-0.305
7.475,-0.665,-0.26
7.4778,-0.62,-0.245
7.4806,-0.6,-0.225
7.4833,-0.59,-0.215
7.4861,-0.585,-0.155
7.4889,-0.56,-0.105
7.4917,-0.505,-0.07
7.4944,-0.48,-0.05
7.4972,-0.475,-0.055
7.5,-0.48,-0.055
7.5028,-0.49,-0.085
7.5056,-0.455,-0.135
7.5083,-0.425,-0.185
7.5111,-0.415,-0.22
7.5139,-0.39,-0.225
7.5167,-0.355,-0.19
7.5194,-0.36,-0.15
7.5222,-0.425,-0.125
7.525,-0.485,-0.09
7.5278,-0.525,-0.155
7.5306,-0.505,-0.295
7.5333,-0.53,-0.445
7.5361,-0.56,-0.495
7.5389,-0.62,-0.4
7.5417,-0.635,-0.235
7.5444,-0.63,-0.11
7.5472,-0.615,-0.085
7.55,-0.615,-0.1
7.5528,-0.605,-0.165
7.5556,-0.605,-0.2
7.5583,-0.605,-0.19
7.5611,-0.61,-0.14
7.5639,-0.595,-0.13
7.5667,-0.59,-0.105
7.5694,-0.595,-0.11
7.5722,-0.59,-0.105
7.575,-0.575,-0.11
7.5778,-0.565,-0.105
7.5806,-0.565,-0.09
7.5833,-0.525,-0.07
7.5861,-0.515,-0.045
7.5889,-0.505,-0.005
7.5917,-0.5,0.01
7.5944,-0.495,0.01
7.5972,-0.475,-0.04
7.6,-0.45,-0.115
7.6028,-0.44,-0.165
7.6056,-0.42,-0.14
7.6083,-0.4,-0.035
7.6111,-0.335,0.11
7.6139,-0.28,0.135
7.6167,-0.25,0.015
7.6194,-0.27,-0.135
7.6222,-0.33,-0.215
7.625,-0.41,-0.21
7.6278,-0.445,-0.17
7.6306,-0.42,-0.115
7.6333,-0.355,-0.045
7.6361,-0.285,-0.05
7.6389,-0.235,-0.115
7.6417,-0.2,-0.2
7.6444,-0.205,-0.285
7.6472,-0.185,-0.32
7.65,-0.15,-0.315
7.6528,-0.145,-0.28
7.6556,-0.175,-0.24
7.6583,-0.205,-0.215
7.6611,-0.185,-0.19
7.6639,-0.155,-0.19
7.6667,-0.115,-0.205
7.6694,-0.115,-0.215
7.6722,-0.125,-0.21
7.675,-0.12,-0.225
7.6778,-0.15,-0.205
7.6806,-0.165,-0.21
7.6833,-0.18,-0.195
7.6861,-0.195,-0.22
7.6889,-0.225,-0.215
7.6917,-0.2,-0.21
7.6944,-0.155,-0.2
7.6972,-0.055,-0.215
7.7,0.05,-0.23
7.7028,0.075,-0.245
7.7056,0.07,-0.25
7.7083,0.015,-0.245
7.7111,-0.05,-0.24
7.7139,-0.08,-0.235
7.7167,-0.08,-0.255
7.7194,-0.06,-0.265
7.7222,-0.03,-0.28
7.725,0.015,-0.3
7.7278,0.055,-0.295
7.7306,0.08,-0.315
7.7333,0.095,-0.315
7.7361,0.11,-0.335
7.7389,0.145,-0.34
7.7417,0.105,-0.33
7.7444,-0.025,-0.3
7.7472,-0.135,-0.27
7.75,-0.175,-0.26
7.7528,-0.145,-0.26
7.7556,-0.11,-0.265
7.7583,-0.12,-0.265
7.7611,-0.17,-0.255
7.7639,-0.195,-0.27
7.7667,-0.15,-0.275
7.7694,-0.105,-0.295
7.7722,-0.06,-0.3
7.775,-0.03,-0.285
7.7778,-0.055,-0.27
7.7806,-0.065,-0.26
7.7833,-0.08,-0.255
7.7861,-0.105,-0.255
7.7889,-0.155,-0.25
7.7917,-0.215,-0.245
7.7944,-0.28,-0.235
7.7972,-0.295,-0.225
7.8,-0.29,-0.235
7.8028,-0.285,-0.245
7.8056,-0.305,-0.255
7.8083,-0.31,-0.24
7.8111,-0.32,-0.235
7.8139,-0.31,-0.235
7.8167,-0.3,-0.235
7.8194,-0.28,-0.235
7.8222,-0.31,-0.255
7.825,-0.32,-0.25
7.8278,-0.3,-0.245
7.8306,-0.255,-0.245
7.8333,-0.235,-0.245
7.8361,-0.285,-0.255
7.8389,-0.365,-0.255
7.8417,-0.4,-0.235
7.8444,-0.405,-0.225
7.8472,-0.355,-0.22
7.85,-0.37,-0.23
7.8528,-0.405,-0.225
7.8556,-0.44,-0.225
7.8583,-0.425,-0.215
7.8611,-0.4,-0.2
7.8639,-0.37,-0.2
7.8667,-0.35,-0.235
7.8694,-0.35,-0.245
7.8722,-0.355,-0.24
7.875,-0.35,-0.245
7.8778,-0.34,-0.23
7.8806,-0.35,-0.24
7.8833,-0.35,-0.235
7.8861,-0.37,-0.225
7.8889,-0.35,-0.225
7.8917,-0.34,-0.21
7.8944,-0.335,-0.19
7.8972,-0.335,-0.205
7.9,-0.33,-0.21
7.9028,-0.32,-0.215
7.9056,-0.325,-0.23
7.9083,-0.32,-0.22
7.9111,-0.315,-0.215
7.9139,-0.285,-0.205
7.9167,-0.28,-0.21
7.9194,-0.29,-0.235
7.9222,-0.28,-0.24
7.925,-0.265,-0.225
7.9278,-0.24,-0.205
7.9306,-0.23,-0.21
7.9333,-0.27,-0.2
7.9361,-0.3,-0.2
7.9389,-0.345,-0.19
7.9417,-0.365,-0.175
7.9444,-0.36,-0.12
7.9472,-0.345,-0.105
7.95,-0.34,-0.095
7.9528,-0.335,-0.09
7.9556,-0.31,-0.105
7.9583,-0.235,-0.11
7.9611,-0.11,-0.145
7.9639,-0.005,-0.185
7.9667,0.085,-0.26
7.9694,0.165,-0.34
7.9722,0.205,-0.435
7.975,0.2,-0.48
7.9778,0.2,-0.54
7.9806,0.25,-0.63
7.9833,0.345,-0.77
7.9861,0.445,-0.925
7.9889,0.54,-1.085
7.9917,0.635,-1.18
7.9944,0.725,-1.24
7.9972,0.795,-1.275
8,0.805,-1.295
8.0028,0.79,-1.315
8.0056,0.755,-1.31
8.0083,0.745,-1.265
8.0111,0.725,-1.21
8.0139,0.68,-1.155
8.0167,0.57,-1.085
8.0194,0.485,-1.04
8.0222,0.425,-0.985
8.025,0.36,-0.915
8.0278,0.29,-0.855
8.0306,0.2,-0.795
8.0333,0.065,-0.75
8.0361,-0.075,-0.7
8.0389,-0.215,-0.67
8.0417,-0.325,-0.625
8.0444,-0.43,-0.575
8.0472,-0.53,-0.56
8.05,-0.615,-0.525
8.0528,-0.695,-0.49
8.0556,-0.745,-0.47
8.0583,-0.775,-0.435
8.0611,-0.785,-0.4
8.0639,-0.8,-0.39
8.0667,-0.8,-0.36
8.0694,-0.795,-0.36
8.0722,-0.795,-0.345
8.075,-0.8,-0.31
8.0778,-0.81,-0.29
8.0806,-0.785,-0.26
8.0833,-0.765,-0.24
8.0861,-0.725,-0.22
8.0889,-0.695,-0.19
8.0917,-0.655,-0.15
8.0944,-0.625,-0.13
8.0972,-0.605,-0.115
8.1,-0.59,-0.095
8.1028,-0.59,-0.085
8.1056,-0.59,-0.09
8.1083,-0.56,-0.055
8.1111,-0.535,-0.025
8.1139,-0.51,-0.01
8.1167,-0.475,-0.01
8.1194,-0.475,-0.025
8.1222,-0.46,-0.02
8.125,-0.45,0.005
8.1278,-0.435,0.015
8.1306,-0.42,0
8.1333,-0.42,0
8.1361,-0.44,-0.005
8.1389,-0.435,-0.005
8.1417,-0.425,0.005
8.1444,-0.42,0.02
8.1472,-0.435,0.01
8.15,-0.425,0.02
8.1528,-0.435,0.025
8.1556,-0.44,0.025
8.1583,-0.45,0.02
8.1611,-0.435,0.035
8.1639,-0.43,0.05
8.1667,-0.44,0.04
8.1694,-0.445,0.045
8.1722,-0.46,0.04
8.175,-0.45,0.055
8.1778,-0.44,0.07
8.1806,-0.43,0.07
8.1833,-0.425,0.06
8.1861,-0.44,0.07
8.1889,-0.45,0.075
8.1917,-0.44,0.085
8.1944,-0.425,0.1
8.1972,-0.425,0.085
8.2,-0.415,0.085
8.2028,-0.425,0.09
8.2056,-0.44,0.09
8.2083,-0.425,0.085
8.2111,-0.42,0.1
8.2139,-0.41,0.1
8.2167,-0.405,0.1
8.2194,-0.415,0.09
8.2222,-0.41,0.095
8.225,-0.405,0.115
8.2278,-0.385,0.13
8.2306,-0.36,0.115
8.2333,-0.355,0.11
8.2361,-0.365,0.105
8.2389,-0.365,0.09
8.2417,-0.34,0.105
8.2444,-0.32,0.1
8.2472,-0.305,0.115
8.25,-0.305,0.115
8.2528,-0.295,0.09
8.2556,-0.29,0.1
8.2583,-0.265,0.11
8.2611,-0.235,0.115
8.2639,-0.225,0.09
8.2667,-0.22,0.1
8.2694,-0.225,0.09
8.2722,-0.24,0.09
8.275,-0.215,0.08
8.2778,-0.19,0.085
8.2806,-0.16,0.07
8.2833,-0.14,0.07
8.2861,-0.135,0.055
8.2889,-0.135,0.035
8.2917,-0.12,0.055
8.2944,-0.095,0.065
8.2972,-0.08,0.07
8.3,-0.075,0.045
8.3028,-0.075,0.04
8.3056,-0.075,0.035
8.3083,-0.055,0.025
8.3111,-0.03,0.03
8.3139,-0.03,0.01
8.3167,-0.03,0.015
8.3194,-0.015,0
8.3222,-0.015,-0.02
8.325,-0.005,-0.015
8.3278,0.015,-0.01
8.3306,0.035,-0.02
8.3333,0.035,-0.03
8.3361,0.035,-0.035
8.3389,0.03,-0.045
8.3417,0.055,-0.035
8.3444,0.075,-0.025
8.3472,0.095,-0.03
8.35,0.1,-0.04
8.3528,0.105,-0.06
8.3556,0.095,-0.055
8.3583,0.105,-0.06
8.3611,0.115,-0.055
8.3639,0.11,-0.065
8.3667,0.105,-0.08
8.3694,0.075,-0.1
8.3722,0.065,-0.115
8.375,0.065,-0.11
8.3778,0.08,-0.09
8.3806,0.095,-0.095
8.3833,0.095,-0.095
8.3861,0.11,-0.11
8.3889,0.095,-0.12
8.3917,0.1,-0.11
8.3944,0.11,-0.1
8.3972,0.095,-0.11
8.4,0.09,-0.12
8.4028,0.08,-0.115
8.4056,0.06,-0.115
8.4083,0.07,-0.11
8.4111,0.065,-0.095
8.4139,0.06,-0.09
8.4167,0.065,-0.1
8.4194,0.06,-0.11
8.4222,0.055,-0.115
8.425,0.06,-0.1
8.4278,0.08,-0.08
8.4306,0.075,-0.08
8.4333,0.055,-0.08
8.4361,0.02,-0.09
8.4389,-0.015,-0.09
8.4417,-0.05,-0.075
8.4444,-0.065,-0.06
8.4472,-0.09,-0.06
8.45,-0.11,-0.06
8.4528,-0.135,-0.08
8.4556,-0.175,-0.065
8.4583,-0.195,-0.075
8.4611,-0.21,-0.065
8.4639,-0.21,-0.055
8.4667,-0.21,-0.065
8.4694,-0.22,-0.075
8.4722,-0.245,-0.07
8.475,-0.25,-0.065
8.4778,-0.235,-0.055
8.4806,-0.22,-0.065
8.4833,-0.23,-0.06
8.4861,-0.23,-0.075
8.4889,-0.24,-0.07
8.4917,-0.245,-0.065
8.4944,-0.235,-0.06
8.4972,-0.23,-0.065
8.5,-0.235,-0.07
8.5028,-0.24,-0.08
8.5056,-0.255,-0.085
8.5083,-0.25,-0.075
8.5111,-0.23,-0.06
8.5139,-0.235,-0.07
8.5167,-0.24,-0.08
8.5194,-0.265,-0.095
8.5222,-0.255,-0.08
8.525,-0.26,-0.085
8.5278,-0.25,-0.075
8.5306,-0.23,-0.08
8.5333,-0.235,-0.085
8.5361,-0.235,-0.095
8.5389,-0.24,-0.09
8.5417,-0.23,-0.085
8.5444,-0.225,-0.085
8.5472,-0.235,-0.08
8.55,-0.24,-0.075
8.5528,-0.24,-0.08
8.5556,-0.24,-0.095
8.5583,-0.22,-0.09
8.5611,-0.215,-0.08
8.5639,-0.205,-0.085
8.5667,-0.21,-0.09
8.5694,-0.215,-0.085
8.5722,-0.22,-0.09
8.575,-0.225,-0.07
8.5778,-0.21,-0.065
8.5806,-0.21,-0.07
8.5833,-0.21,-0.07
8.5861,-0.215,-0.06
8.5889,-0.235,-0.06
8.5917,-0.255,-0.03
8.5944,-0.26,-0.005
8.5972,-0.265,0.02
8.6,-0.265,0.045
8.6028,-0.27,0.045
8.6056,-0.25,0.03
8.6083,-0.155,0.015
8.6111,-0.04,-0.01
8.6139,0.05,-0.06
8.6167,0.15,-0.14
8.6194,0.215,-0.22
8.6222,0.275,-0.315
8.625,0.32,-0.395
8.6278,0.39,-0.455
8.6306,0.49,-0.585
8.6333,0.595,-0.755
8.6361,0.69,-0.925
8.6389,0.78,-1.06
8.6417,0.86,-1.165
8.6444,0.935,-1.21
8.6472,0.97,-1.24
8.65,0.98,-1.26
8.6528,0.95,-1.27
8.6556,0.94,-1.265
8.6583,0.915,-1.215
8.6611,0.88,-1.155
8.6639,0.8,-1.095
8.6667,0.685,-1.035
8.6694,0.585,-0.985
8.6722,0.495,-0.93
8.675,0.41,-0.865
8.6778,0.315,-0.785
8.6806,0.2,-0.73
8.6833,0.07,-0.665
8.6861,-0.1,-0.62
8.6889,-0.265,-0.57
8.6917,-0.375,-0.51
8.6944,-0.48,-0.465
8.6972,-0.59,-0.45
8.7,-0.68,-0.42
8.7028,-0.75,-0.395
8.7056,-0.79,-0.355
8.7083,-0.825,-0.315
8.7111,-0.83,-0.29
8.7139,-0.835,-0.26
8.7167,-0.835,-0.245
8.7194,-0.83,-0.235
8.7222,-0.845,-0.2
8.725,-0.845,-0.18
8.7278,-0.82,-0.145
8.7306,-0.775,-0.115
8.7333,-0.755,-0.085
8.7361,-0.73,-0.08
8.7389,-0.7,-0.065
8.7417,-0.67,-0.025
8.7444,-0.65,0.005
8.7472,-0.625,0.025
8.75,-0.61,0.055
8.7528,-0.605,0.055
8.7556,-0.59,0.065
8.7583,-0.555,0.09
8.7611,-0.515,0.12
8.7639,-0.49,0.12
8.7667,-0.49,0.135
8.7694,-0.48,0.125
8.7722,-0.49,0.135
8.775,-0.465,0.145
8.7778,-0.455,0.165
8.7806,-0.455,0.16
8.7833,-0.445,0.16
8.7861,-0.45,0.15
8.7889,-0.46,0.155
8.7917,-0.465,0.165
8.7944,-0.46,0.17
8.7972,-0.465,0.18
8.8,-0.455,0.175
8.8028,-0.475,0.185
8.8056,-0.475,0.17
8.8083,-0.475,0.19
8.8111,-0.46,0.2
8.8139,-0.465,0.19
8.8167,-0.46,0.185
8.8194,-0.475,0.18
8.8222,-0.485,0.195
8.825,-0.495,0.21
8.8278,-0.485,0.22
8.8306,-0.48,0.225
8.8333,-0.48,0.225
8.8361,-0.5,0.225
8.8389,-0.51,0.235
8.8417,-0.505,0.245
8.8444,-0.49,0.26
8.8472,-0.49,0.26
8.85,-0.495,0.245
8.8528,-0.495,0.24
8.8556,-0.5,0.245
8.8583,-0.5,0.25
8.8611,-0.485,0.26
8.8639,-0.47,0.265
8.8667,-0.475,0.255
8.8694,-0.47,0.25
8.8722,-0.475,0.25
8.875,-0.47,0.265
8.8778,-0.45,0.27
8.8806,-0.435,0.275
8.8833,-0.435,0.265
8.8861,-0.435,0.27
8.8889,-0.43,0.26
8.8917,-0.415,0.26
8.8944,-0.41,0.275
8.8972,-0.39,0.27
8.9,-0.39,0.275
8.9028,-0.385,0.255
8.9056,-0.385,0.25
8.9083,-0.375,0.255
8.9111,-0.365,0.265
8.9139,-0.335,0.26
8.9167,-0.315,0.25
8.9194,-0.31,0.245
8.9222,-0.315,0.24
8.925,-0.305,0.235
8.9278,-0.285,0.245
8.9306,-0.255,0.255
8.9333,-0.245,0.24
8.9361,-0.235,0.245
8.9389,-0.24,0.235
8.9417,-0.225,0.23
8.9444,-0.215,0.245
8.9472,-0.175,0.225
8.95,-0.16,0.215
8.9528,-0.145,0.195
8.9556,-0.155,0.2
8.9583,-0.15,0.2
8.9611,-0.135,0.21
8.9639,-0.12,0.205
8.9667,-0.12,0.195
8.9694,-0.11,0.16
8.9722,-0.11,0.165
8.975,-0.1,0.17
8.9778,-0.08,0.17
8.9806,-0.06,0.175
8.9833,-0.05,0.16
8.9861,-0.045,0.145
8.9889,-0.055,0.135
8.9917,-0.04,0.14
8.9944,-0.04,0.135
8.9972,-0.01,0.135
9,0.015,0.125
9.0028,0.02,0.11
9.0056,0.015,0.12
9.0083,0,0.12
9.0111,0.01,0.135
9.0139,0.025,0.12
9.0167,0.025,0.115
9.0194,0.02,0.1
9.0222,0.015,0.095
9.025,0.015,0.085
9.0278,0.025,0.09
9.0306,0.015,0.08
9.0333,-0.005,0.065
9.0361,-0.025,0.065
9.0389,-0.035,0.05
9.0417,-0.025,0.055
9.0444,0,0.08
9.0472,0.025,0.07
9.05,0.03,0.055
9.0528,0.015,0.055
9.0556,-0.005,0.065
9.0583,-0.015,0.075
9.0611,-0.005,0.11
9.0639,-0.005,0.145
9.0667,-0.005,0.19
9.0694,-0.03,0.195
9.0722,-0.035,0.185
9.075,-0.035,0.165
9.0778,-0.035,0.125
9.0806,-0.03,0.105
9.0833,-0.035,0.08
9.0861,-0.06,0.11
9.0889,-0.065,0.135
9.0917,-0.05,0.15
9.0944,-0.04,0.135
9.0972,-0.045,0.1
9.1,-0.06,0.06
9.1028,-0.095,0.015
9.1056,-0.135,-0.02
9.1083,-0.16,-0.03
9.1111,-0.18,-0.025
9.1139,-0.2,-0.005
9.1167,-0.225,-0.01
9.1194,-0.265,0
9.1222,-0.29,0.015
9.125,-0.32,0.04
9.1278,-0.325,0.06
9.1306,-0.335,0.075
9.1333,-0.345,0.08
9.1361,-0.36,0.07
9.1389,-0.385,0.08
9.1417,-0.37,0.08
9.1444,-0.36,0.09
9.1472,-0.335,0.095
9.15,-0.345,0.075
9.1528,-0.345,0.07
9.1556,-0.36,0.075
9.1583,-0.365,0.075
9.1611,-0.35,0.085
9.1639,-0.335,0.08
9.1667,-0.34,0.075
9.1694,-0.355,0.06
9.1722,-0.365,0.055
9.175,-0.36,0.07
9.1778,-0.345,0.08
9.1806,-0.335,0.085
9.1833,-0.345,0.075
9.1861,-0.36,0.065
9.1889,-0.365,0.07
9.1917,-0.36,0.07
9.1944,-0.35,0.095
9.1972,-0.335,0.07
9.2,-0.345,0.065
9.2028,-0.35,0.065
9.2056,-0.375,0.065
9.2083,-0.35,0.075
9.2111,-0.34,0.075
9.2139,-0.32,0.08
9.2167,-0.325,0.075
9.2194,-0.335,0.075
9.2222,-0.345,0.065
9.225,-0.345,0.07
9.2278,-0.34,0.08
9.2306,-0.33,0.075
9.2333,-0.305,0.075
9.2361,-0.315,0.075
9.2389,-0.33,0.07
9.2417,-0.33,0.085
9.2444,-0.31,0.1
9.2472,-0.315,0.1
9.25,-0.31,0.11
9.2528,-0.325,0.125
9.2556,-0.355,0.14
9.2583,-0.35,0.165
9.2611,-0.305,0.185
9.2639,-0.22,0.185
9.2667,-0.11,0.16
9.2694,0.02,0.1
9.2722,0.12,0.05
9.275,0.2,-0.01
9.2778,0.285,-0.085
9.2806,0.345,-0.165
9.2833,0.395,-0.22
9.2861,0.43,-0.295
9.2889,0.495,-0.365
9.2917,0.565,-0.47
9.2944,0.655,-0.585
9.2972,0.74,-0.725
9.3,0.805,-0.855
9.3028,0.82,-0.96
9.3056,0.795,-1
9.3083,0.755,-0.98
9.3111,0.73,-0.94
9.3139,0.7,-0.89
9.3167,0.65,-0.85
9.3194,0.56,-0.815
9.3222,0.445,-0.765
9.325,0.365,-0.705
9.3278,0.295,-0.665
9.3306,0.21,-0.61
9.3333,0.11,-0.545
9.3361,0.005,-0.515
9.3389,-0.15,-0.465
9.3417,-0.305,-0.39
9.3444,-0.45,-0.35
9.3472,-0.555,-0.315
9.35,-0.66,-0.295
9.3528,-0.77,-0.275
9.3556,-0.87,-0.25
9.3583,-0.925,-0.195
9.3611,-0.95,-0.14
9.3639,-0.97,-0.115
9.3667,-0.96,-0.115
9.3694,-0.975,-0.1
9.3722,-0.975,-0.08
9.375,-0.95,-0.05
9.3778,-0.94,-0.02
9.3806,-0.915,0
9.3833,-0.895,0.025
9.3861,-0.86,0.035
9.3889,-0.84,0.06
9.3917,-0.82,0.09
9.3944,-0.775,0.125
9.3972,-0.75,0.14
9.4,-0.72,0.15
9.4028,-0.725,0.16
9.4056,-0.705,0.165
9.4083,-0.685,0.185
9.4111,-0.64,0.205
9.4139,-0.61,0.22
9.4167,-0.61,0.22
9.4194,-0.6,0.215
9.4222,-0.61,0.22
9.425,-0.575,0.24
9.4278,-0.545,0.25
9.4306,-0.53,0.24
9.4333,-0.53,0.24
9.4361,-0.545,0.235
9.4389,-0.555,0.235
9.4417,-0.56,0.23
9.4444,-0.555,0.245
9.4472,-0.55,0.245
9.45,-0.545,0.245
9.4528,-0.56,0.24
9.4556,-0.565,0.225
9.4583,-0.565,0.255
9.4611,-0.565,0.27
9.4639,-0.54,0.26
9.4667,-0.56,0.26
9.4694,-0.565,0.25
9.4722,-0.58,0.265
9.475,-0.565,0.275
9.4778,-0.555,0.27
9.4806,-0.54,0.275
9.4833,-0.55,0.265
9.4861,-0.56,0.27
9.4889,-0.56,0.27
9.4917,-0.545,0.275
9.4944,-0.54,0.285
9.4972,-0.525,0.29
9.5,-0.535,0.275
9.5028,-0.535,0.275
9.5056,-0.545,0.28
9.5083,-0.535,0.29
9.5111,-0.525,0.285
9.5139,-0.51,0.3
9.5167,-0.505,0.295
9.5194,-0.5,0.29
9.5222,-0.5,0.295
9.525,-0.475,0.305
9.5278,-0.46,0.295
9.5306,-0.435,0.3
9.5333,-0.435,0.29
9.5361,-0.445,0.285
9.5389,-0.445,0.275
9.5417,-0.42,0.28
9.5444,-0.41,0.285
9.5472,-0.395,0.29
9.55,-0.385,0.285
9.5528,-0.4,0.27
9.5556,-0.38,0.275
9.5583,-0.37,0.28
9.5611,-0.36,0.275
9.5639,-0.34,0.285
9.5667,-0.32,0.265
9.5694,-0.325,0.25
9.5722,-0.33,0.26
9.575,-0.315,0.255
9.5778,-0.285,0.27
9.5806,-0.265,0.275
9.5833,-0.255,0.255
9.5861,-0.23,0.25
9.5889,-0.225,0.255
9.5917,-0.21,0.27
9.5944,-0.205,0.275
9.5972,-0.175,0.24
9.6,-0.175,0.22
9.6028,-0.16,0.19
9.6056,-0.175,0.195
9.6083,-0.17,0.2
9.6111,-0.16,0.2
9.6139,-0.135,0.19
9.6167,-0.14,0.2
9.6194,-0.135,0.18
9.6222,-0.135,0.18
9.625,-0.12,0.18
9.6278,-0.11,0.19
9.6306,-0.1,0.185
9.6333,-0.085,0.195
9.6361,-0.085,0.195
9.6389,-0.09,0.2
9.6417,-0.065,0.2
9.6444,-0.05,0.205
9.6472,-0.04,0.165
9.65,-0.05,0.135
9.6528,-0.045,0.125
9.6556,-0.05,0.13
9.6583,-0.04,0.135
9.6611,-0.02,0.145
9.6639,-0.015,0.12
9.6667,-0.035,0.105
9.6694,-0.055,0.065
9.6722,-0.075,0.075
9.675,-0.085,0.085
9.6778,-0.05,0.075
9.6806,-0.04,0.075
9.6833,-0.04,0.075
9.6861,-0.05,0.07
9.6889,-0.055,0.065
9.6917,-0.075,0.085
9.6944,-0.075,0.085
9.6972,-0.065,0.08
9.7,-0.065,0.075
9.7028,-0.075,0.07
9.7056,-0.08,0.075
9.7083,-0.085,0.075
9.7111,-0.075,0.085
9.7139,-0.065,0.085
9.7167,-0.07,0.085
9.7194,-0.075,0.065
9.7222,-0.095,0.065
9.725,-0.105,0.075
9.7278,-0.09,0.095
9.7306,-0.08,0.095
9.7333,-0.08,0.09
9.7361,-0.09,0.085
9.7389,-0.11,0.09
9.7417,-0.13,0.105
9.7444,-0.135,0.115
9.7472,-0.17,0.115
9.75,-0.185,0.105
9.7528,-0.225,0.1
9.7556,-0.265,0.1
9.7583,-0.29,0.115
9.7611,-0.305,0.12
9.7639,-0.325,0.12
9.7667,-0.34,0.12
9.7694,-0.365,0.125
9.7722,-0.36,0.15
9.775,-0.355,0.165
9.7778,-0.35,0.17
9.7806,-0.355,0.17
9.7833,-0.36,0.145
9.7861,-0.365,0.11
9.7889,-0.375,0.1
9.7917,-0.365,0.11
9.7944,-0.365,0.105
9.7972,-0.35,0.095
9.8,-0.36,0.095
9.8028,-0.38,0.07
9.8056,-0.37,0.07
9.8083,-0.37,0.08
9.8111,-0.35,0.08
9.8139,-0.355,0.08
9.8167,-0.375,0.09
9.8194,-0.38,0.09
9.8222,-0.395,0.085
9.825,-0.38,0.085
9.8278,-0.365,0.095
9.8306,-0.355,0.095
9.8333,-0.335,0.095
9.8361,-0.355,0.095
9.8389,-0.365,0.08
9.8417,-0.365,0.08
9.8444,-0.37,0.105
9.8472,-0.355,0.09
9.85,-0.36,0.08
9.8528,-0.36,0.09
9.8556,-0.37,0.09
9.8583,-0.36,0.095
9.8611,-0.365,0.105
9.8639,-0.35,0.085
9.8667,-0.35,0.095
9.8694,-0.345,0.075
9.8722,-0.37,0.085
9.875,-0.365,0.095
9.8778,-0.355,0.09
9.8806,-0.35,0.11
9.8833,-0.345,0.09
9.8861,-0.34,0.085
9.8889,-0.33,0.09
9.8917,-0.325,0.115
9.8944,-0.32,0.14
9.8972,-0.335,0.145
9.9,-0.36,0.17
9.9028,-0.38,0.165
9.9056,-0.39,0.175
9.9083,-0.365,0.2
9.9111,-0.32,0.205
9.9139,-0.205,0.175
9.9167,-0.08,0.125
9.9194,0.025,0.075
9.9222,0.085,0.005
9.925,0.145,-0.05
9.9278,0.17,-0.105
9.9306,0.195,-0.175
9.9333,0.24,-0.26
9.9361,0.295,-0.38
9.9389,0.355,-0.525
9.9417,0.43,-0.665
9.9444,0.51,-0.785
9.9472,0.585,-0.9
9.95,0.595,-0.965
9.9528,0.59,-0.98
9.9556,0.55,-0.98
9.9583,0.545,-0.955
9.9611,0.54,-0.915
9.9639,0.53,-0.9
9.9667,0.505,-0.85
9.9694,0.435,-0.795
9.9722,0.36,-0.74
9.975,0.3,-0.68
9.9778,0.235,-0.615
9.9806,0.175,-0.56
9.9833,0.11,-0.51
9.9861,0,-0.47
9.9889,-0.125,-0.425
9.9917,-0.245,-0.375
9.9944,-0.355,-0.32
9.9972,-0.465,-0.29
10,-0.595,-0.27
10.003,-0.7,-0.255
10.006,-0.79,-0.22
10.008,-0.84,-0.16
10.011,-0.855,-0.115
10.014,-0.865,-0.1
10.017,-0.87,-0.08
10.019,-0.885,-0.085
10.022,-0.89,-0.05
10.025,-0.89,-0.015
10.028,-0.875,0.02
10.031,-0.855,0.03
10.033,-0.84,0.065
10.036,-0.825,0.065
10.039,-0.79,0.085
10.042,-0.755,0.115
10.044,-0.725,0.145
10.047,-0.705,0.165
10.05,-0.69,0.175
10.053,-0.685,0.185
10.056,-0.67,0.2
10.058,-0.635,0.22
10.061,-0.6,0.24
10.064,-0.585,0.245
10.067,-0.575,0.245
10.069,-0.565,0.24
10.072,-0.57,0.24
10.075,-0.56,0.26
10.078,-0.54,0.265
10.081,-0.525,0.27
10.083,-0.53,0.265
10.086,-0.54,0.25
10.089,-0.54,0.255
10.092,-0.545,0.265
10.094,-0.54,0.28
10.097,-0.53,0.275
10.1,-0.54,0.275
10.103,-0.545,0.28
10.106,-0.56,0.265
10.108,-0.57,0.285
10.111,-0.55,0.3
10.114,-0.53,0.295
10.117,-0.525,0.285
10.119,-0.535,0.29
10.122,-0.55,0.29
10.125,-0.56,0.305
10.128,-0.54,0.31
10.131,-0.535,0.315
10.133,-0.535,0.315
10.136,-0.535,0.305
10.139,-0.535,0.31
10.142,-0.54,0.32
10.144,-0.545,0.335
10.147,-0.555,0.345
10.15,-0.55,0.35
10.153,-0.545,0.335
10.156,-0.545,0.345
10.158,-0.535,0.34
10.161,-0.525,0.35
10.164,-0.51,0.355
10.167,-0.505,0.35
10.169,-0.485,0.335
10.172,-0.5,0.335
10.175,-0.485,0.35
10.178,-0.46,0.355
10.181,-0.435,0.355
10.183,-0.44,0.335
10.186,-0.44,0.335
10.189,-0.435,0.325
10.192,-0.415,0.345
10.194,-0.4,0.35
10.197,-0.395,0.33
10.2,-0.38,0.335
10.203,-0.39,0.315
10.206,-0.37,0.315
10.208,-0.35,0.33
10.211,-0.33,0.32
10.214,-0.315,0.315
10.217,-0.31,0.315
10.219,-0.3,0.305
10.222,-0.305,0.3
10.225,-0.29,0.295
10.228,-0.275,0.31
10.231,-0.25,0.295
10.233,-0.23,0.28
10.236,-0.23,0.27
10.239,-0.245,0.27
10.242,-0.23,0.27
10.244,-0.21,0.275
10.247,-0.185,0.27
10.25,-0.165,0.25
10.253,-0.165,0.24
10.256,-0.175,0.22
10.258,-0.165,0.23
10.261,-0.16,0.24
10.264,-0.135,0.225
10.267,-0.14,0.215
10.269,-0.155,0.19
10.272,-0.17,0.165
10.275,-0.155,0.185
10.278,-0.14,0.195
10.281,-0.12,0.195
10.283,-0.105,0.205
10.286,-0.1,0.185
10.289,-0.09,0.185
10.292,-0.08,0.195
10.294,-0.065,0.195
10.297,-0.055,0.185
10.3,-0.06,0.18
10.303,-0.06,0.165
10.306,-0.055,0.16
10.308,-0.05,0.185
10.311,-0.055,0.195
10.314,-0.065,0.17
10.317,-0.095,0.135
10.319,-0.1,0.09
10.322,-0.1,0.095
10.325,-0.085,0.1
10.328,-0.07,0.08
10.331,-0.06,0.055
10.333,-0.06,0.025
10.336,-0.06,0.035
10.339,-0.055,0.03
10.342,-0.05,0.035
10.344,-0.045,0.065
10.347,-0.035,0.075
10.35,-0.03,0.085
10.353,-0.055,0.1
10.356,-0.075,0.11
10.358,-0.095,0.13
10.361,-0.12,0.16
10.364,-0.125,0.2
10.367,-0.13,0.225
10.369,-0.14,0.25
10.372,-0.14,0.305
10.375,-0.135,0.375
10.378,-0.135,0.5
10.381,-0.16,0.605
10.383,-0.18,0.57
10.386,-0.215,0.42
10.389,-0.215,0.225
10.392,-0.215,0.09
10.394,-0.215,0.02
10.397,-0.245,0
10.4,-0.31,0.015
10.403,-0.385,0.035
10.406,-0.405,0.025
10.408,-0.38,0.015
10.411,-0.345,-0.02
10.414,-0.33,-0.03
10.417,-0.34,-0.025
10.419,-0.395,-0.015
10.422,-0.44,0.02
10.425,-0.435,0.04
10.428,-0.425,0.07
10.431,-0.405,0.075
10.433,-0.395,0.075
10.436,-0.4,0.075
10.439,-0.41,0.09
10.442,-0.395,0.08
10.444,-0.39,0.09
10.447,-0.395,0.11
10.45,-0.39,0.1
10.453,-0.395,0.09
10.456,-0.4,0.095
10.458,-0.385,0.095
10.461,-0.39,0.1
10.464,-0.37,0.105
10.467,-0.38,0.09
10.469,-0.385,0.085
10.472,-0.39,0.09
10.475,-0.385,0.085
10.478,-0.37,0.105
10.481,-0.355,0.1
10.483,-0.365,0.09
10.486,-0.38,0.07
10.489,-0.38,0.085
10.492,-0.385,0.07
10.494,-0.37,0.105
10.497,-0.355,0.09
10.5,-0.37,0.085
10.503,-0.375,0.075
10.506,-0.365,0.075
10.508,-0.355,0.08
10.511,-0.35,0.08
10.514,-0.345,0.095
10.517,-0.34,0.095
10.519,-0.34,0.085
10.522,-0.355,0.09
10.525,-0.37,0.115
10.528,-0.36,0.145
10.531,-0.385,0.17
10.533,-0.39,0.185
10.536,-0.405,0.185
10.539,-0.41,0.195
10.542,-0.37,0.215
10.544,-0.29,0.195
10.547,-0.17,0.145
10.55,-0.065,0.085
10.553,0.015,0
10.556,0.055,-0.075
10.558,0.08,-0.135
10.561,0.115,-0.185
10.564,0.195,-0.28
10.567,0.275,-0.425
10.569,0.365,-0.59
10.572,0.435,-0.755
10.575,0.505,-0.865
10.578,0.57,-0.93
10.581,0.61,-0.965
10.583,0.625,-0.985
10.586,0.61,-0.995
10.589,0.6,-0.97
10.592,0.6,-0.93
10.594,0.565,-0.855
10.597,0.515,-0.815
10.6,0.425,-0.75
10.603,0.34,-0.7
10.606,0.275,-0.64
10.608,0.23,-0.57
10.611,0.17,-0.52
10.614,0.065,-0.465
10.617,-0.05,-0.43
10.619,-0.195,-0.39
10.622,-0.33,-0.35
10.625,-0.465,-0.295
10.628,-0.58,-0.25
10.631,-0.665,-0.235
10.633,-0.725,-0.215
10.636,-0.785,-0.19
10.639,-0.825,-0.16
10.642,-0.85,-0.125
10.644,-0.855,-0.105
10.647,-0.86,-0.085
10.65,-0.84,-0.07
10.653,-0.85,-0.05
10.656,-0.87,-0.015
10.658,-0.87,0.01
10.661,-0.845,0.05
10.664,-0.81,0.07
10.667,-0.775,0.08
10.669,-0.755,0.1
10.672,-0.76,0.1
10.675,-0.715,0.15
10.678,-0.695,0.175
10.681,-0.68,0.19
10.683,-0.65,0.205
10.686,-0.64,0.21
10.689,-0.615,0.22
10.692,-0.595,0.24
10.694,-0.57,0.26
10.697,-0.545,0.25
10.7,-0.54,0.265
10.703,-0.53,0.255
10.706,-0.55,0.265
10.708,-0.54,0.26
10.711,-0.52,0.28
10.714,-0.51,0.285
10.717,-0.5,0.28
10.719,-0.515,0.275
10.722,-0.53,0.275
10.725,-0.52,0.28
10.728,-0.51,0.295
10.731,-0.505,0.31
10.733,-0.525,0.305
10.736,-0.535,0.29
10.739,-0.55,0.295
10.742,-0.55,0.305
10.744,-0.545,0.32
10.747,-0.535,0.32
10.75,-0.525,0.325
10.753,-0.535,0.31
10.756,-0.545,0.32
10.758,-0.545,0.33
10.761,-0.53,0.345
10.764,-0.53,0.34
10.767,-0.54,0.35
10.769,-0.535,0.34
10.772,-0.55,0.345
10.775,-0.545,0.36
10.778,-0.535,0.365
10.781,-0.525,0.36
10.783,-0.525,0.355
10.786,-0.53,0.355
10.789,-0.525,0.36
10.792,-0.52,0.36
10.794,-0.51,0.385
10.797,-0.485,0.375
10.8,-0.485,0.375
10.803,-0.495,0.365
10.806,-0.5,0.375
10.808,-0.475,0.375
10.811,-0.46,0.38
10.814,-0.435,0.385
10.817,-0.435,0.385
10.819,-0.425,0.38
10.822,-0.41,0.405
10.825,-0.39,0.45
10.828,-0.365,0.48
10.831,-0.36,0.52
10.833,-0.35,0.495
10.836,-0.335,0.44
10.839,-0.345,0.39
10.842,-0.345,0.355
10.844,-0.33,0.35
10.847,-0.325,0.365
10.85,-0.32,0.395
10.853,-0.315,0.42
10.856,-0.32,0.445
10.858,-0.305,0.49
10.861,-0.3,0.555
10.864,-0.285,0.585
10.867,-0.24,0.49
10.869,-0.2,0.355
10.872,-0.17,0.21
10.875,-0.165,0.155
10.878,-0.17,0.145
10.881,-0.19,0.16
10.883,-0.215,0.17
10.886,-0.245,0.18
10.889,-0.235,0.175
10.892,-0.215,0.19
10.894,-0.18,0.205
10.897,-0.165,0.195
10.9,-0.145,0.205
10.903,-0.135,0.2
10.906,-0.14,0.18
10.908,-0.11,0.185
10.911,-0.085,0.17
10.914,-0.055,0.16
10.917,-0.045,0.145
10.919,-0.045,0.13
10.922,-0.05,0.135
10.925,-0.04,0.145
10.928,-0.03,0.16
10.931,-0.01,0.16
10.933,-0.015,0.15
10.936,-0.01,0.145
10.939,-0.03,0.135
10.942,-0.04,0.135
10.944,-0.035,0.135
10.947,-0.045,0.12
10.95,-0.055,0.11
10.953,-0.055,0.105
10.956,-0.06,0.095
10.958,-0.04,0.095
10.961,-0.025,0.115
10.964,-0.015,0.11
10.967,-0.01,0.09
10.969,-0.025,0.095
10.972,-0.04,0.09
10.975,-0.035,0.095
10.978,-0.035,0.11
10.981,-0.025,0.115
10.983,-0.05,0.11
10.986,-0.07,0.115
10.989,-0.075,0.095
10.992,-0.075,0.1
10.994,-0.06,0.115
10.997,-0.06,0.115
11,-0.055,0.105
11.003,-0.07,0.105
11.006,-0.07,0.115
11.008,-0.07,0.135
11.011,-0.085,0.13
11.014,-0.105,0.125
11.017,-0.155,0.12
11.019,-0.185,0.125
11.022,-0.22,0.13
11.025,-0.245,0.13
11.028,-0.275,0.155
11.031,-0.29,0.15
11.033,-0.31,0.135
11.036,-0.325,0.135
11.039,-0.36,0.145
11.042,-0.35,0.145
11.044,-0.355,0.16
11.047,-0.355,0.165
11.05,-0.36,0.145
11.053,-0.36,0.14
11.056,-0.375,0.135
11.058,-0.395,0.145
11.061,-0.37,0.155
11.064,-0.375,0.145
11.067,-0.37,0.13
11.069,-0.38,0.13
11.072,-0.4,0.125
11.075,-0.39,0.135
11.078,-0.38,0.135
11.081,-0.37,0.135
11.083,-0.375,0.145
11.086,-0.4,0.13
11.089,-0.4,0.125
11.092,-0.385,0.13
11.094,-0.38,0.14
11.097,-0.365,0.135
11.1,-0.365,0.12
11.103,-0.39,0.11
11.106,-0.385,0.11
11.108,-0.375,0.12
11.111,-0.365,0.13
11.114,-0.35,0.13
11.117,-0.36,0.12
11.119,-0.37,0.115
11.122,-0.375,0.115
11.125,-0.365,0.13
11.128,-0.365,0.135
11.131,-0.36,0.14
11.133,-0.35,0.125
11.136,-0.355,0.125
11.139,-0.36,0.125
11.142,-0.355,0.125
11.144,-0.345,0.14
11.147,-0.335,0.14
11.15,-0.335,0.14
11.153,-0.35,0.125
11.156,-0.36,0.135
11.158,-0.37,0.16
11.161,-0.36,0.19
11.164,-0.375,0.21
11.167,-0.405,0.24
11.169,-0.425,0.245
11.172,-0.425,0.255
11.175,-0.38,0.25
11.178,-0.3,0.23
11.181,-0.2,0.195
11.183,-0.09,0.135
11.186,0.005,0.05
11.189,0.075,-0.04
11.192,0.125,-0.105
11.194,0.165,-0.17
11.197,0.245,-0.28
11.2,0.345,-0.415
11.203,0.455,-0.58
11.206,0.535,-0.755
11.208,0.64,-0.89
11.211,0.725,-0.96
11.214,0.785,-1.005
11.217,0.82,-1.035
11.219,0.82,-1.05
11.222,0.795,-1.04
11.225,0.775,-0.995
11.228,0.755,-0.93
11.231,0.7,-0.885
11.233,0.6,-0.825
11.236,0.5,-0.765
11.239,0.41,-0.695
11.242,0.33,-0.62
11.244,0.27,-0.55
11.247,0.17,-0.51
11.25,0.05,-0.46
11.253,-0.105,-0.415
11.256,-0.265,-0.365
11.258,-0.385,-0.33
11.261,-0.5,-0.27
11.264,-0.62,-0.24
11.267,-0.745,-0.22
11.269,-0.81,-0.19
11.272,-0.86,-0.155
11.275,-0.895,-0.125
11.278,-0.905,-0.1
11.281,-0.9,-0.075
11.283,-0.9,-0.05
11.286,-0.915,-0.04
11.289,-0.93,-0.015
11.292,-0.915,0.025
11.294,-0.895,0.05
11.297,-0.855,0.075
11.3,-0.82,0.095
11.303,-0.785,0.115
11.306,-0.775,0.14
11.308,-0.745,0.17
11.311,-0.715,0.2
11.314,-0.71,0.225
11.317,-0.68,0.23
11.319,-0.67,0.25
11.322,-0.67,0.25
11.325,-0.635,0.28
11.328,-0.61,0.305
11.331,-0.58,0.305
11.333,-0.565,0.305
11.336,-0.575,0.29
11.339,-0.57,0.305
11.342,-0.555,0.305
11.344,-0.545,0.32
11.347,-0.545,0.32
11.35,-0.53,0.31
11.353,-0.545,0.3
11.356,-0.56,0.315
11.358,-0.55,0.335
11.361,-0.535,0.345
11.364,-0.535,0.335
11.367,-0.545,0.33
11.369,-0.55,0.33
11.372,-0.555,0.335
11.375,-0.56,0.34
11.378,-0.555,0.355
11.381,-0.555,0.355
11.383,-0.56,0.36
11.386,-0.57,0.355
11.389,-0.58,0.375
11.392,-0.565,0.365
11.394,-0.55,0.38
11.397,-0.55,0.375
11.4,-0.55,0.385
11.403,-0.56,0.375
11.406,-0.575,0.375
11.408,-0.565,0.405
11.411,-0.56,0.405
11.414,-0.555,0.4
11.417,-0.54,0.395
11.419,-0.55,0.39
11.422,-0.55,0.39
11.425,-0.56,0.405
11.428,-0.545,0.42
11.431,-0.53,0.41
11.433,-0.515,0.405
11.436,-0.515,0.4
11.439,-0.525,0.4
11.442,-0.505,0.405
11.444,-0.49,0.41
11.447,-0.485,0.41
11.45,-0.47,0.4
11.453,-0.46,0.4
11.456,-0.465,0.39
11.458,-0.45,0.405
11.461,-0.43,0.415
11.464,-0.41,0.405
11.467,-0.395,0.395
11.469,-0.395,0.38
11.472,-0.39,0.38
11.475,-0.385,0.395
11.478,-0.365,0.395
11.481,-0.32,0.385
11.483,-0.32,0.375
11.486,-0.31,0.36
11.489,-0.32,0.355
11.492,-0.295,0.365
11.494,-0.275,0.365
11.497,-0.265,0.355
11.5,-0.265,0.355
11.503,-0.25,0.335
11.506,-0.245,0.315
11.508,-0.235,0.33
11.511,-0.21,0.335
11.514,-0.195,0.33
11.517,-0.185,0.315
11.519,-0.18,0.3
11.522,-0.185,0.295
11.525,-0.17,0.3
11.528,-0.15,0.305
11.531,-0.145,0.295
11.533,-0.13,0.28
11.536,-0.135,0.265
11.539,-0.135,0.265
11.542,-0.12,0.27
11.544,-0.1,0.275
11.547,-0.075,0.26
11.55,-0.065,0.255
11.553,-0.055,0.24
11.556,-0.055,0.235
11.558,-0.045,0.245
11.561,-0.015,0.245
11.564,-0.005,0.23
11.567,-0.01,0.215
11.569,-0.005,0.195
11.572,-0.025,0.19
11.575,-0.02,0.205
11.578,-0.04,0.195
11.581,-0.03,0.18
11.583,-0.03,0.175
11.586,-0.04,0.155
11.589,-0.05,0.15
11.592,-0.04,0.15
11.594,-0.035,0.17
11.597,-0.02,0.145
11.6,-0.01,0.15
11.603,-0.02,0.145
11.606,-0.03,0.14
11.608,-0.035,0.145
11.611,-0.03,0.145
11.614,-0.025,0.15
11.617,-0.03,0.155
11.619,-0.035,0.145
11.622,-0.055,0.15
11.625,-0.065,0.145
11.628,-0.07,0.16
11.631,-0.055,0.16
11.633,-0.07,0.145
11.636,-0.07,0.15
11.639,-0.08,0.145
11.642,-0.08,0.165
11.644,-0.075,0.18
11.647,-0.095,0.18
11.65,-0.12,0.185
11.653,-0.16,0.17
11.656,-0.22,0.17
11.658,-0.24,0.17
11.661,-0.265,0.195
11.664,-0.275,0.19
11.667,-0.3,0.175
11.669,-0.335,0.175
11.672,-0.355,0.18
11.675,-0.35,0.195
11.678,-0.36,0.205
11.681,-0.355,0.19
11.683,-0.36,0.19
11.686,-0.38,0.19
11.689,-0.405,0.19
11.692,-0.4,0.19
11.694,-0.385,0.195
11.697,-0.375,0.19
11.7,-0.37,0.185
11.703,-0.38,0.17
11.706,-0.395,0.175
11.708,-0.39,0.185
11.711,-0.38,0.2
11.714,-0.38,0.18
11.717,-0.385,0.18
11.719,-0.39,0.17
11.722,-0.395,0.155
11.725,-0.39,0.18
11.728,-0.38,0.185
11.731,-0.38,0.17
11.733,-0.39,0.155
11.736,-0.395,0.165
11.739,-0.415,0.165
11.742,-0.395,0.175
11.744,-0.385,0.18
11.747,-0.37,0.185
11.75,-0.37,0.17
11.753,-0.37,0.165
11.756,-0.39,0.165
11.758,-0.395,0.175
11.761,-0.395,0.185
11.764,-0.38,0.185
11.767,-0.375,0.17
11.769,-0.38,0.16
11.772,-0.395,0.16
11.775,-0.385,0.17
11.778,-0.375,0.185
11.781,-0.365,0.195
11.783,-0.37,0.19
11.786,-0.375,0.19
11.789,-0.4,0.205
11.792,-0.405,0.24
11.794,-0.425,0.28
11.797,-0.415,0.295
11.8,-0.4,0.29
11.803,-0.37,0.3
11.806,-0.255,0.27
11.808,-0.1,0.22
11.811,0.07,0.155
11.814,0.185,0.05
11.817,0.27,-0.07
11.819,0.32,-0.175
11.822,0.375,-0.265
11.825,0.49,-0.395
11.828,0.61,-0.56
11.831,0.715,-0.76
11.833,0.82,-0.915
11.836,0.9,-1.005
11.839,0.92,-1.035
11.842,0.93,-1.02
11.844,0.91,-1
11.847,0.885,-0.96
11.85,0.815,-0.91
11.853,0.705,-0.845
11.856,0.57,-0.785
11.858,0.44,-0.7
11.861,0.325,-0.63
11.864,0.24,-0.565
11.867,0.11,-0.51
11.869,-0.025,-0.455
11.872,-0.205,-0.395
11.875,-0.375,-0.32
11.878,-0.515,-0.265
11.881,-0.645,-0.23
11.883,-0.785,-0.21
11.886,-0.9,-0.18
11.889,-0.98,-0.14
11.892,-1.01,-0.09
11.894,-1.03,-0.055
11.897,-1.04,-0.025
11.9,-1.02,-0.015
11.903,-1.015,0.01
11.906,-1.025,0.03
11.908,-1.01,0.065
11.911,-0.99,0.115
11.914,-0.955,0.14
11.917,-0.905,0.155
11.919,-0.87,0.17
11.922,-0.84,0.185
11.925,-0.83,0.22
11.928,-0.79,0.25
11.931,-0.78,0.275
11.933,-0.75,0.28
11.936,-0.735,0.305
11.939,-0.715,0.305
11.942,-0.685,0.33
11.944,-0.655,0.36
11.947,-0.63,0.355
11.95,-0.62,0.355
11.953,-0.62,0.355
11.956,-0.635,0.355
11.958,-0.625,0.36
11.961,-0.61,0.375
11.964,-0.605,0.375
11.967,-0.61,0.36
11.969,-0.625,0.37
11.972,-0.63,0.365
11.975,-0.635,0.38
11.978,-0.63,0.4
11.981,-0.62,0.385
11.983,-0.625,0.39
11.986,-0.64,0.38
11.989,-0.64,0.365
11.992,-0.64,0.395
11.994,-0.645,0.4
11.997,-0.64,0.42
12,-0.645,0.405
12.003,-0.635,0.405
12.006,-0.65,0.41
12.008,-0.65,0.43
12.011,-0.63,0.43
12.014,-0.63,0.425
12.017,-0.625,0.42
12.019,-0.64,0.425
12.022,-0.645,0.425
12.025,-0.635,0.445
12.028,-0.625,0.45
12.031,-0.61,0.44
12.033,-0.61,0.45
12.036,-0.615,0.445
12.039,-0.615,0.44
12.042,-0.595,0.45
12.044,-0.58,0.45
12.047,-0.565,0.45
12.05,-0.57,0.445
12.053,-0.565,0.44
12.056,-0.55,0.435
12.058,-0.53,0.44
12.061,-0.51,0.445
12.064,-0.49,0.45
12.067,-0.495,0.42
12.069,-0.475,0.425
12.072,-0.48,0.415
12.075,-0.46,0.435
12.078,-0.44,0.44
12.081,-0.42,0.42
12.083,-0.405,0.425
12.086,-0.395,0.405
12.089,-0.385,0.405
12.092,-0.375,0.415
12.094,-0.36,0.4
12.097,-0.33,0.395
12.1,-0.305,0.38
12.103,-0.305,0.38
12.106,-0.325,0.365
12.108,-0.3,0.38
12.111,-0.28,0.385
12.114,-0.255,0.38
12.117,-0.24,0.36
12.119,-0.235,0.335
12.122,-0.225,0.345
12.125,-0.215,0.335
12.128,-0.205,0.35
12.131,-0.185,0.34
12.133,-0.17,0.33
12.136,-0.17,0.315
12.139,-0.165,0.315
12.142,-0.145,0.315
12.144,-0.115,0.315
12.147,-0.1,0.305
12.15,-0.1,0.3
12.153,-0.105,0.275
12.156,-0.095,0.29
12.158,-0.095,0.28
12.161,-0.08,0.28
12.164,-0.075,0.275
12.167,-0.08,0.26
12.169,-0.085,0.24
12.172,-0.11,0.225
12.175,-0.115,0.22
12.178,-0.11,0.22
12.181,-0.11,0.215
12.183,-0.095,0.215
12.186,-0.095,0.205
12.189,-0.085,0.195
12.192,-0.07,0.195
12.194,-0.08,0.205
12.197,-0.07,0.205
12.2,-0.09,0.19
12.203,-0.095,0.185
12.206,-0.1,0.19
12.208,-0.095,0.195
12.211,-0.1,0.2
12.214,-0.11,0.2
12.217,-0.125,0.2
12.219,-0.14,0.185
12.222,-0.15,0.17
12.225,-0.145,0.19
12.228,-0.14,0.21
12.231,-0.12,0.21
12.233,-0.13,0.21
12.236,-0.155,0.195
12.239,-0.185,0.215
12.242,-0.22,0.22
12.244,-0.235,0.235
12.247,-0.265,0.235
12.25,-0.31,0.215
12.253,-0.36,0.23
12.256,-0.405,0.23
12.258,-0.41,0.23
12.261,-0.405,0.24
12.264,-0.42,0.235
12.267,-0.42,0.23
12.269,-0.435,0.22
12.272,-0.46,0.225
12.275,-0.455,0.24
12.278,-0.445,0.25
12.281,-0.45,0.25
12.283,-0.445,0.23
12.286,-0.455,0.23
12.289,-0.465,0.225
12.292,-0.46,0.235
12.294,-0.46,0.24
12.297,-0.46,0.235
12.3,-0.46,0.23
12.303,-0.47,0.225
12.306,-0.48,0.22
12.308,-0.475,0.225
12.311,-0.465,0.235
12.314,-0.45,0.23
12.317,-0.45,0.23
12.319,-0.445,0.22
12.322,-0.445,0.21
12.325,-0.44,0.22
12.328,-0.445,0.225
12.331,-0.445,0.21
12.333,-0.455,0.2
12.336,-0.45,0.2
12.339,-0.45,0.2
12.342,-0.445,0.21
12.344,-0.44,0.215
12.347,-0.43,0.215
12.35,-0.425,0.21
12.353,-0.43,0.205
12.356,-0.445,0.195
12.358,-0.44,0.215
12.361,-0.42,0.215
12.364,-0.42,0.215
12.367,-0.41,0.2
12.369,-0.415,0.19
12.372,-0.42,0.2
12.375,-0.41,0.215
12.378,-0.42,0.225
12.381,-0.415,0.225
12.383,-0.41,0.235
12.386,-0.41,0.245
12.389,-0.445,0.27
12.392,-0.445,0.295
12.394,-0.435,0.335
12.397,-0.415,0.32
12.4,-0.37,0.34
12.403,-0.28,0.31
12.406,-0.16,0.26
12.408,-0.015,0.225
12.411,0.1,0.165
12.414,0.195,0.09
12.417,0.26,-0.01
12.419,0.275,-0.085
12.422,0.305,-0.17
12.425,0.385,-0.275
12.428,0.485,-0.41
12.431,0.575,-0.565
12.433,0.64,-0.715
12.436,0.695,-0.835
12.439,0.695,-0.89
12.442,0.675,-0.895
12.444,0.64,-0.85
12.447,0.61,-0.83
12.45,0.57,-0.805
12.453,0.505,-0.755
12.456,0.4,-0.69
12.458,0.31,-0.6
12.461,0.225,-0.53
12.464,0.135,-0.49
12.467,0.055,-0.42
12.469,-0.05,-0.395
12.472,-0.19,-0.335
12.475,-0.345,-0.28
12.478,-0.48,-0.235
12.481,-0.605,-0.2
12.483,-0.735,-0.165
12.486,-0.855,-0.145
12.489,-0.945,-0.105
12.492,-1,-0.05
12.494,-1.015,-0.02
12.497,-1.03,0
12.5,-1.03,0.015
12.503,-1.03,0.03
12.506,-1.03,0.055
12.508,-1.025,0.085
12.511,-1.005,0.14
12.514,-0.97,0.15
12.517,-0.935,0.16
12.519,-0.905,0.18
12.522,-0.885,0.205
12.525,-0.85,0.24
12.528,-0.82,0.265
12.531,-0.81,0.28
12.533,-0.795,0.285
12.536,-0.78,0.295
12.539,-0.755,0.3
12.542,-0.71,0.33
12.544,-0.68,0.35
12.547,-0.66,0.35
12.55,-0.65,0.355
12.553,-0.655,0.35
12.556,-0.65,0.35
12.558,-0.635,0.345
12.561,-0.625,0.365
12.564,-0.625,0.365
12.567,-0.625,0.345
12.569,-0.62,0.345
12.572,-0.64,0.35
12.575,-0.64,0.375
12.578,-0.63,0.39
12.581,-0.61,0.38
12.583,-0.625,0.38
12.586,-0.625,0.37
12.589,-0.65,0.375
12.592,-0.63,0.385
12.594,-0.625,0.395
12.597,-0.62,0.405
12.6,-0.63,0.39
12.603,-0.64,0.395
12.606,-0.645,0.39
12.608,-0.64,0.4
12.611,-0.625,0.425
12.614,-0.605,0.415
12.617,-0.625,0.42
12.619,-0.625,0.41
12.622,-0.63,0.42
12.625,-0.615,0.42
12.628,-0.61,0.425
12.631,-0.595,0.425
12.633,-0.58,0.425
12.636,-0.585,0.41
12.639,-0.585,0.415
12.642,-0.57,0.44
12.644,-0.555,0.445
12.647,-0.545,0.43
12.65,-0.53,0.42
12.653,-0.525,0.41
12.656,-0.515,0.405
12.658,-0.5,0.41
12.661,-0.475,0.42
12.664,-0.455,0.415
12.667,-0.45,0.41
12.669,-0.43,0.39
12.672,-0.435,0.39
12.675,-0.425,0.4
12.678,-0.395,0.415
12.681,-0.375,0.4
12.683,-0.36,0.385
12.686,-0.345,0.39
12.689,-0.345,0.38
12.692,-0.325,0.38
12.694,-0.305,0.39
12.697,-0.285,0.37
12.7,-0.275,0.37
12.703,-0.265,0.35
12.706,-0.265,0.34
12.708,-0.245,0.34
12.711,-0.23,0.345
12.714,-0.215,0.345
12.717,-0.2,0.34
12.719,-0.195,0.31
12.722,-0.195,0.305
12.725,-0.18,0.315
12.728,-0.17,0.32
12.731,-0.15,0.3
12.733,-0.145,0.305
12.736,-0.145,0.28
12.739,-0.13,0.285
12.742,-0.135,0.28
12.744,-0.11,0.3
12.747,-0.09,0.27
12.75,-0.1,0.27
12.753,-0.085,0.255
12.756,-0.085,0.255
12.758,-0.08,0.25
12.761,-0.06,0.255
12.764,-0.055,0.235
12.767,-0.09,0.22
12.769,-0.11,0.19
12.772,-0.14,0.205
12.775,-0.13,0.195
12.778,-0.115,0.2
12.781,-0.1,0.21
12.783,-0.085,0.195
12.786,-0.085,0.195
12.789,-0.1,0.185
12.792,-0.085,0.19
12.794,-0.09,0.18
12.797,-0.09,0.19
12.8,-0.09,0.195
12.803,-0.11,0.185
12.806,-0.125,0.19
12.808,-0.125,0.195
12.811,-0.115,0.205
12.814,-0.12,0.2
12.817,-0.12,0.195
12.819,-0.135,0.205
12.822,-0.14,0.205
12.825,-0.14,0.225
12.828,-0.155,0.235
12.831,-0.17,0.23
12.833,-0.21,0.23
12.836,-0.245,0.23
12.839,-0.275,0.22
12.842,-0.305,0.235
12.844,-0.32,0.245
12.847,-0.35,0.24
12.85,-0.375,0.25
12.853,-0.39,0.245
12.856,-0.415,0.24
12.858,-0.415,0.25
12.861,-0.41,0.26
12.864,-0.41,0.245
12.867,-0.41,0.25
12.869,-0.415,0.235
12.872,-0.425,0.235
12.875,-0.425,0.25
12.878,-0.425,0.245
12.881,-0.415,0.245
12.883,-0.425,0.23
12.886,-0.425,0.23
12.889,-0.435,0.23
12.892,-0.43,0.235
12.894,-0.415,0.245
12.897,-0.41,0.245
12.9,-0.415,0.23
12.903,-0.425,0.215
12.906,-0.43,0.22
12.908,-0.435,0.23
12.911,-0.43,0.23
12.914,-0.41,0.23
12.917,-0.405,0.215
12.919,-0.435,0.225
12.922,-0.41,0.22
12.925,-0.415,0.23
12.928,-0.415,0.225
12.931,-0.405,0.225
12.933,-0.405,0.22
12.936,-0.42,0.215
12.939,-0.425,0.2
12.942,-0.405,0.205
12.944,-0.4,0.215
12.947,-0.395,0.235
12.95,-0.385,0.215
12.953,-0.385,0.21
12.956,-0.395,0.22
12.958,-0.385,0.23
12.961,-0.375,0.235
12.964,-0.37,0.235
12.967,-0.375,0.25
12.969,-0.39,0.265
12.972,-0.42,0.29
12.975,-0.42,0.325
12.978,-0.415,0.34
12.981,-0.39,0.345
12.983,-0.305,0.325
12.986,-0.185,0.27
12.989,-0.065,0.215
12.992,0.04,0.16
12.994,0.11,0.075
12.997,0.14,0.005
13,0.155,-0.075
13.003,0.215,-0.17
13.006,0.305,-0.29
13.008,0.405,-0.445
13.011,0.495,-0.59
13.014,0.575,-0.725
13.017,0.63,-0.83
13.019,0.655,-0.865
13.022,0.64,-0.87
13.025,0.63,-0.855
13.028,0.625,-0.84
13.031,0.625,-0.785
13.033,0.575,-0.755
13.036,0.5,-0.705
13.039,0.4,-0.65
13.042,0.325,-0.58
13.044,0.28,-0.505
13.047,0.21,-0.465
13.05,0.145,-0.425
13.053,0.04,-0.375
13.056,-0.09,-0.315
13.058,-0.225,-0.275
13.061,-0.38,-0.215
13.064,-0.485,-0.19
13.067,-0.625,-0.155
13.069,-0.74,-0.14
13.072,-0.82,-0.12
13.075,-0.87,-0.065
13.078,-0.885,-0.025
13.081,-0.9,-0.015
13.083,-0.925,0.01
13.086,-0.93,0.02
13.089,-0.935,0.04
13.092,-0.915,0.085
13.094,-0.915,0.115
13.097,-0.895,0.135
13.1,-0.87,0.155
13.103,-0.85,0.185
13.106,-0.82,0.205
13.108,-0.79,0.225
13.111,-0.745,0.265
13.114,-0.73,0.275
13.117,-0.715,0.29
13.119,-0.72,0.295
13.122,-0.695,0.31
13.125,-0.66,0.325
13.128,-0.63,0.35
13.131,-0.605,0.35
13.133,-0.595,0.355
13.136,-0.59,0.345
13.139,-0.585,0.35
13.142,-0.57,0.36
13.144,-0.57,0.37
13.147,-0.555,0.375
13.15,-0.555,0.37
13.153,-0.56,0.36
13.156,-0.58,0.36
13.158,-0.57,0.365
13.161,-0.57,0.39
13.164,-0.565,0.39
13.167,-0.57,0.39
13.169,-0.565,0.375
13.172,-0.585,0.37
13.175,-0.575,0.38
13.178,-0.575,0.395
13.181,-0.565,0.395
13.183,-0.575,0.405
13.186,-0.585,0.395
13.189,-0.595,0.395
13.192,-0.585,0.4
13.194,-0.585,0.43
13.197,-0.58,0.42
13.2,-0.585,0.42
13.203,-0.59,0.415
13.206,-0.585,0.405
13.208,-0.585,0.43
13.211,-0.565,0.44
13.214,-0.555,0.435
13.217,-0.55,0.43
13.219,-0.56,0.425
13.222,-0.565,0.44
13.225,-0.55,0.44
13.228,-0.535,0.46
13.231,-0.52,0.45
13.233,-0.52,0.44
13.236,-0.52,0.425
13.239,-0.52,0.43
13.242,-0.505,0.44
13.244,-0.485,0.445
13.247,-0.46,0.44
13.25,-0.46,0.425
13.253,-0.45,0.43
13.256,-0.46,0.42
13.258,-0.44,0.42
13.261,-0.41,0.43
13.264,-0.38,0.43
13.267,-0.38,0.415
13.269,-0.36,0.41
13.272,-0.36,0.4
13.275,-0.34,0.42
13.278,-0.32,0.41
13.281,-0.31,0.41
13.283,-0.285,0.4
13.286,-0.29,0.385
13.289,-0.28,0.38
13.292,-0.26,0.385
13.294,-0.235,0.395
13.297,-0.22,0.37
13.3,-0.21,0.36
13.303,-0.205,0.34
13.306,-0.2,0.335
13.308,-0.18,0.345
13.311,-0.17,0.345
13.314,-0.15,0.335
13.317,-0.14,0.325
13.319,-0.145,0.305
13.322,-0.145,0.29
13.325,-0.12,0.295
13.328,-0.105,0.29
13.331,-0.085,0.28
13.333,-0.085,0.285
13.336,-0.075,0.265
13.339,-0.075,0.26
13.342,-0.06,0.265
13.344,-0.04,0.26
13.347,-0.025,0.26
13.35,-0.015,0.23
13.353,-0.03,0.23
13.356,-0.035,0.22
13.358,-0.025,0.235
13.361,-0.01,0.24
13.364,-0.025,0.21
13.367,-0.035,0.195
13.369,-0.065,0.165
13.372,-0.075,0.17
13.375,-0.065,0.18
13.378,-0.05,0.185
13.381,-0.03,0.17
13.383,-0.02,0.18
13.386,-0.03,0.165
13.389,-0.03,0.16
13.392,-0.035,0.16
13.394,-0.05,0.18
13.397,-0.03,0.175
13.4,-0.035,0.165
13.403,-0.04,0.165
13.406,-0.055,0.17
13.408,-0.065,0.185
13.411,-0.075,0.19
13.414,-0.07,0.195
13.417,-0.07,0.18
13.419,-0.075,0.18
13.422,-0.085,0.185
13.425,-0.07,0.2
13.428,-0.08,0.2
13.431,-0.09,0.215
13.433,-0.14,0.205
13.436,-0.175,0.2
13.439,-0.215,0.215
13.442,-0.245,0.21
13.444,-0.26,0.235
13.447,-0.275,0.225
13.45,-0.3,0.215
13.453,-0.34,0.205
13.456,-0.355,0.215
13.458,-0.35,0.225
13.461,-0.34,0.255
13.464,-0.355,0.235
13.467,-0.355,0.23
13.469,-0.38,0.21
13.472,-0.385,0.215
13.475,-0.385,0.225
13.478,-0.375,0.235
13.481,-0.38,0.23
13.483,-0.375,0.215
13.486,-0.37,0.21
13.489,-0.375,0.215
13.492,-0.385,0.215
13.494,-0.37,0.215
13.497,-0.365,0.215
13.5,-0.365,0.205
13.503,-0.375,0.2
13.506,-0.38,0.2
13.508,-0.37,0.205
13.511,-0.36,0.21
13.514,-0.355,0.2
13.517,-0.35,0.195
13.519,-0.37,0.19
13.522,-0.38,0.18
13.525,-0.365,0.195
13.528,-0.37,0.21
13.531,-0.355,0.195
13.533,-0.365,0.2
13.536,-0.355,0.18
13.539,-0.35,0.18
13.542,-0.35,0.185
13.544,-0.34,0.195
13.547,-0.33,0.2
13.55,-0.33,0.195
13.553,-0.335,0.175
13.556,-0.34,0.175
13.558,-0.34,0.195
13.561,-0.325,0.195
13.564,-0.305,0.195
13.567,-0.32,0.205
13.569,-0.335,0.2
13.572,-0.36,0.225
13.575,-0.375,0.265
13.578,-0.38,0.3
13.581,-0.395,0.32
13.583,-0.375,0.31
13.586,-0.345,0.3
13.589,-0.27,0.265
13.592,-0.125,0.22
13.594,-0.005,0.165
13.597,0.085,0.08
13.6,0.125,-0.02
13.603,0.145,-0.1
13.606,0.185,-0.18
13.608,0.295,-0.29
13.611,0.405,-0.44
13.614,0.525,-0.615
13.617,0.615,-0.785
13.619,0.695,-0.9
13.622,0.745,-0.95
13.625,0.785,-0.965
13.628,0.81,-0.965
13.631,0.82,-0.975
13.633,0.815,-0.96
13.636,0.775,-0.9
13.639,0.715,-0.85
13.642,0.625,-0.78
13.644,0.53,-0.7
13.647,0.455,-0.64
13.65,0.39,-0.58
13.653,0.29,-0.535
13.656,0.16,-0.475
13.658,0.055,-0.405
13.661,-0.07,-0.35
13.664,-0.22,-0.295
13.667,-0.38,-0.255
13.669,-0.535,-0.23
13.672,-0.655,-0.2
13.675,-0.74,-0.165
13.678,-0.775,-0.12
13.681,-0.805,-0.09
13.683,-0.845,-0.07
13.686,-0.86,-0.06
13.689,-0.88,-0.035
13.692,-0.875,0
13.694,-0.87,0.04
13.697,-0.865,0.065
13.7,-0.865,0.085
13.703,-0.85,0.105
13.706,-0.84,0.135
13.708,-0.79,0.16
13.711,-0.75,0.205
13.714,-0.715,0.215
13.717,-0.705,0.23
13.719,-0.7,0.255
13.722,-0.685,0.26
13.725,-0.655,0.29
13.728,-0.63,0.32
13.731,-0.59,0.325
13.733,-0.58,0.33
13.736,-0.57,0.335
13.739,-0.565,0.345
13.742,-0.54,0.355
13.744,-0.525,0.37
13.747,-0.505,0.36
13.75,-0.505,0.36
13.753,-0.51,0.36
13.756,-0.515,0.36
13.758,-0.515,0.36
13.761,-0.51,0.375
13.764,-0.505,0.375
13.767,-0.51,0.375
13.769,-0.515,0.375
13.772,-0.535,0.37
13.775,-0.53,0.38
13.778,-0.53,0.4
13.781,-0.515,0.39
13.783,-0.52,0.395
13.786,-0.525,0.385
13.789,-0.54,0.395
13.792,-0.535,0.41
13.794,-0.515,0.425
13.797,-0.515,0.415
13.8,-0.52,0.425
13.803,-0.535,0.415
13.806,-0.545,0.42
13.808,-0.52,0.43
13.811,-0.51,0.445
13.814,-0.505,0.44
13.817,-0.52,0.435
13.819,-0.52,0.43
13.822,-0.525,0.415
13.825,-0.505,0.44
13.828,-0.495,0.46
13.831,-0.5,0.465
13.833,-0.495,0.46
13.836,-0.5,0.445
13.839,-0.5,0.45
13.842,-0.48,0.445
13.844,-0.46,0.465
13.847,-0.455,0.45
13.85,-0.45,0.45
13.853,-0.45,0.43
13.856,-0.45,0.44
13.858,-0.435,0.445
13.861,-0.405,0.47
13.864,-0.39,0.445
13.867,-0.375,0.44
13.869,-0.375,0.425
13.872,-0.375,0.43
13.875,-0.355,0.425
13.878,-0.335,0.455
13.881,-0.315,0.44
13.883,-0.3,0.43
13.886,-0.29,0.425
13.889,-0.3,0.4
13.892,-0.285,0.41
13.894,-0.255,0.415
13.897,-0.24,0.41
13.9,-0.23,0.39
13.903,-0.22,0.385
13.906,-0.22,0.375
13.908,-0.2,0.38
13.911,-0.185,0.375
13.914,-0.15,0.365
13.917,-0.16,0.345
13.919,-0.15,0.35
13.922,-0.15,0.325
13.925,-0.12,0.335
13.928,-0.105,0.345
13.931,-0.1,0.32
13.933,-0.095,0.31
13.936,-0.085,0.3
13.939,-0.075,0.29
13.942,-0.065,0.295
13.944,-0.035,0.305
13.947,-0.02,0.285
13.95,-0.01,0.28
13.953,-0.01,0.26
13.956,0.005,0.275
13.958,0.015,0.275
13.961,0.025,0.28
13.964,0.03,0.26
13.967,0.04,0.245
13.969,0.04,0.225
13.972,0.03,0.22
13.975,0.03,0.225
13.978,0.02,0.205
13.981,0.015,0.195
13.983,0.02,0.185
13.986,0.02,0.175
13.989,0.025,0.17
13.992,0.045,0.165
13.994,0.05,0.175
13.997,0.04,0.165
14,0.045,0.15
14.003,0.035,0.14
14.006,0.015,0.14
14.008,0.025,0.165
14.011,0.045,0.175
14.014,0.045,0.165
14.017,0.025,0.165
14.019,0.015,0.16
14.022,0,0.155
14.025,0,0.175
14.028,0,0.17
14.031,-0.005,0.185
14.033,-0.005,0.165
14.036,-0.005,0.16
14.039,-0.035,0.165
14.042,-0.035,0.185
14.044,-0.05,0.2
14.047,-0.07,0.2
14.05,-0.115,0.185
14.053,-0.15,0.18
14.056,-0.18,0.18
14.058,-0.215,0.205
14.061,-0.24,0.205
14.064,-0.275,0.205
14.067,-0.295,0.215
14.069,-0.31,0.195
14.072,-0.32,0.205
14.075,-0.325,0.205
14.078,-0.32,0.215
14.081,-0.33,0.215
14.083,-0.335,0.195
14.086,-0.34,0.195
14.089,-0.355,0.195
14.092,-0.345,0.205
14.094,-0.345,0.215
14.097,-0.34,0.195
14.1,-0.34,0.195
14.103,-0.35,0.185
14.106,-0.365,0.19
14.108,-0.35,0.2
14.111,-0.345,0.2
14.114,-0.34,0.19
14.117,-0.335,0.18
14.119,-0.34,0.18
14.122,-0.355,0.185
14.125,-0.36,0.2
14.128,-0.345,0.2
14.131,-0.33,0.195
14.133,-0.33,0.175
14.136,-0.34,0.165
14.139,-0.345,0.17
14.142,-0.34,0.175
14.144,-0.335,0.185
14.147,-0.325,0.18
14.15,-0.33,0.17
14.153,-0.34,0.17
14.156,-0.33,0.16
14.158,-0.325,0.17
14.161,-0.305,0.19
14.164,-0.31,0.175
14.167,-0.32,0.165
14.169,-0.33,0.155
14.172,-0.315,0.16
14.175,-0.31,0.18
14.178,-0.3,0.21
14.181,-0.315,0.22
14.183,-0.33,0.23
14.186,-0.365,0.24
14.189,-0.395,0.27
14.192,-0.405,0.31
14.194,-0.385,0.31
14.197,-0.32,0.29
14.2,-0.215,0.24
14.203,-0.09,0.18
14.206,0.03,0.115
14.208,0.115,0.03
14.211,0.185,-0.045
14.214,0.23,-0.125
14.217,0.295,-0.22
14.219,0.39,-0.37
14.222,0.5,-0.54
14.225,0.62,-0.705
14.228,0.72,-0.84
14.231,0.815,-0.955
14.233,0.89,-1.01
14.236,0.93,-1.05
14.239,0.935,-1.05
14.242,0.945,-1.025
14.244,0.93,-0.99
14.247,0.895,-0.93
14.25,0.81,-0.875
14.253,0.685,-0.83
14.256,0.56,-0.76
14.258,0.475,-0.67
14.261,0.4,-0.61
14.264,0.3,-0.545
14.267,0.165,-0.49
14.269,-0.01,-0.43
14.272,-0.175,-0.385
14.275,-0.35,-0.32
14.278,-0.475,-0.255
14.281,-0.615,-0.23
14.283,-0.73,-0.195
14.286,-0.795,-0.175
14.289,-0.85,-0.14
14.292,-0.87,-0.105
14.294,-0.895,-0.07
14.297,-0.905,-0.055
14.3,-0.9,-0.03
14.303,-0.9,-0.01
14.306,-0.905,0.01
14.308,-0.91,0.04
14.311,-0.87,0.08
14.314,-0.84,0.11
14.317,-0.8,0.13
14.319,-0.785,0.155
14.322,-0.755,0.175
14.325,-0.725,0.215
14.328,-0.695,0.25
14.331,-0.675,0.26
14.333,-0.655,0.265
14.336,-0.65,0.285
14.339,-0.63,0.3
14.342,-0.605,0.32
14.344,-0.57,0.34
14.347,-0.555,0.34
14.35,-0.54,0.34
14.353,-0.545,0.34
14.356,-0.545,0.335
14.358,-0.535,0.36
14.361,-0.515,0.36
14.364,-0.515,0.36
14.367,-0.52,0.36
14.369,-0.54,0.345
14.372,-0.555,0.35
14.375,-0.54,0.36
14.378,-0.545,0.37
14.381,-0.535,0.37
14.383,-0.545,0.385
14.386,-0.56,0.37
14.389,-0.55,0.375
14.392,-0.555,0.37
14.394,-0.545,0.4
14.397,-0.55,0.4
14.4,-0.55,0.395
14.403,-0.565,0.39
14.406,-0.575,0.39
14.408,-0.56,0.415
14.411,-0.55,0.42
14.414,-0.555,0.43
14.417,-0.555,0.42
14.419,-0.56,0.41
14.422,-0.56,0.415
14.425,-0.545,0.435
14.428,-0.535,0.44
14.431,-0.54,0.44
14.433,-0.535,0.43
14.436,-0.54,0.43
14.439,-0.54,0.42
14.442,-0.535,0.44
14.444,-0.515,0.46
14.447,-0.505,0.445
14.45,-0.505,0.445
14.453,-0.51,0.435
14.456,-0.51,0.435
14.458,-0.49,0.445
14.461,-0.47,0.445
14.464,-0.45,0.44
14.467,-0.445,0.435
14.469,-0.44,0.425
14.472,-0.44,0.425
14.475,-0.43,0.435
14.478,-0.405,0.44
14.481,-0.38,0.425
14.483,-0.375,0.42
14.486,-0.38,0.4
14.489,-0.375,0.4
14.492,-0.355,0.415
14.494,-0.325,0.415
14.497,-0.305,0.405
14.5,-0.295,0.39
14.503,-0.29,0.395
14.506,-0.295,0.375
14.508,-0.275,0.38
14.511,-0.255,0.4
14.514,-0.24,0.375
14.517,-0.23,0.365
14.519,-0.215,0.36
14.522,-0.205,0.34
14.525,-0.195,0.34
14.528,-0.18,0.345
14.531,-0.16,0.345
14.533,-0.15,0.325
14.536,-0.145,0.315
14.539,-0.14,0.295
14.542,-0.12,0.305
14.544,-0.1,0.31
14.547,-0.09,0.295
14.55,-0.09,0.29
14.553,-0.075,0.28
14.556,-0.08,0.265
14.558,-0.06,0.265
14.561,-0.02,0.285
14.564,-0.015,0.265
14.567,-0.01,0.25
14.569,-0.025,0.24
14.572,-0.025,0.25
14.575,-0.005,0.245
14.578,0.005,0.255
14.581,0.02,0.235
14.583,0.03,0.23
14.586,0.01,0.205
14.589,-0.015,0.2
14.592,-0.015,0.195
14.594,-0.01,0.19
14.597,-0.005,0.165
14.6,-0.01,0.165
14.603,-0.025,0.155
14.606,-0.015,0.15
14.608,0,0.16
14.611,0.015,0.165
14.614,0.015,0.155
14.617,0.01,0.145
14.619,0.005,0.145
14.622,-0.01,0.135
14.625,-0.01,0.145
14.628,0.015,0.14
14.631,0.005,0.155
14.633,-0.01,0.13
14.636,-0.02,0.135
14.639,-0.045,0.135
14.642,-0.055,0.145
14.644,-0.04,0.15
14.647,-0.04,0.15
14.65,-0.055,0.135
14.653,-0.065,0.135
14.656,-0.07,0.145
14.658,-0.055,0.15
14.661,-0.05,0.165
14.664,-0.06,0.155
14.667,-0.105,0.165
14.669,-0.15,0.165
14.672,-0.18,0.175
14.675,-0.205,0.175
14.678,-0.215,0.19
14.681,-0.25,0.195
14.683,-0.28,0.185
14.686,-0.31,0.175
14.689,-0.335,0.18
14.692,-0.35,0.195
14.694,-0.34,0.2
14.697,-0.345,0.19
14.7,-0.355,0.185
14.703,-0.37,0.195
14.706,-0.38,0.185
14.708,-0.385,0.195
14.711,-0.375,0.195
14.714,-0.37,0.19
14.717,-0.38,0.175
14.719,-0.39,0.18
14.722,-0.395,0.17
14.725,-0.385,0.185
14.728,-0.375,0.195
14.731,-0.38,0.18
14.733,-0.385,0.18
14.736,-0.39,0.18
14.739,-0.4,0.155
14.742,-0.4,0.175
14.744,-0.38,0.185
14.747,-0.375,0.175
14.75,-0.39,0.175
14.753,-0.395,0.15
14.756,-0.405,0.15
14.758,-0.4,0.175
14.761,-0.375,0.185
14.764,-0.365,0.175
14.767,-0.37,0.17
14.769,-0.38,0.16
14.772,-0.385,0.15
14.775,-0.37,0.175
14.778,-0.37,0.18
14.781,-0.365,0.17
14.783,-0.37,0.155
14.786,-0.385,0.155
14.789,-0.38,0.145
14.792,-0.36,0.155
14.794,-0.355,0.155
14.797,-0.35,0.16
14.8,-0.35,0.16
14.803,-0.345,0.15
14.806,-0.35,0.15
14.808,-0.355,0.165
14.811,-0.34,0.18
14.814,-0.33,0.17
14.817,-0.35,0.185
14.819,-0.36,0.195
14.822,-0.38,0.21
14.825,-0.4,0.24
14.828,-0.395,0.28
14.831,-0.395,0.285
14.833,-0.39,0.28
14.836,-0.35,0.28
14.839,-0.275,0.265
14.842,-0.13,0.23
14.844,0.015,0.195
14.847,0.145,0.125
14.85,0.245,0.03
14.853,0.315,-0.065
14.856,0.35,-0.14
14.858,0.415,-0.21
14.861,0.525,-0.31
14.864,0.635,-0.465
14.867,0.74,-0.625
14.869,0.825,-0.795
14.872,0.915,-0.93
14.875,1.01,-1.005
14.878,1.055,-1.02
14.881,1.065,-1.025
14.883,1.04,-1.03
14.886,1.015,-1.01
14.889,0.97,-0.965
14.892,0.89,-0.905
14.894,0.785,-0.825
14.897,0.65,-0.775
14.9,0.525,-0.705
14.903,0.42,-0.645
14.906,0.305,-0.59
14.908,0.195,-0.525
14.911,0.09,-0.47
14.914,-0.06,-0.41
14.917,-0.245,-0.365
14.919,-0.415,-0.32
14.922,-0.57,-0.275
14.925,-0.695,-0.23
14.928,-0.81,-0.195
14.931,-0.905,-0.165
14.933,-0.975,-0.135
14.936,-1.01,-0.11
14.939,-1.05,-0.075
14.942,-1.045,-0.045
14.944,-1.035,-0.03
14.947,-1.02,0
14.95,-1.03,0.025
14.953,-1.035,0.045
14.956,-1.03,0.085
14.958,-0.99,0.11
14.961,-0.935,0.145
14.964,-0.895,0.16
14.967,-0.875,0.18
14.969,-0.84,0.2
14.972,-0.83,0.225
14.975,-0.79,0.25
14.978,-0.77,0.265
14.981,-0.745,0.285
14.983,-0.715,0.285
14.986,-0.705,0.285
14.989,-0.685,0.3
14.992,-0.66,0.34
14.994,-0.645,0.355
14.997,-0.625,0.35
15,-0.635,0.34
15.003,-0.64,0.335
15.006,-0.635,0.34
15.008,-0.635,0.345
15.011,-0.63,0.355
15.014,-0.615,0.355
15.017,-0.625,0.35
15.019,-0.635,0.345
15.022,-0.635,0.35
15.025,-0.645,0.355
15.028,-0.62,0.38
15.031,-0.615,0.375
15.033,-0.635,0.365
15.036,-0.64,0.36
15.039,-0.655,0.36
15.042,-0.66,0.375
15.044,-0.64,0.385
15.047,-0.645,0.39
15.05,-0.64,0.385
15.053,-0.65,0.375
15.056,-0.665,0.38
15.058,-0.655,0.395
15.061,-0.63,0.405
15.064,-0.635,0.415
15.067,-0.65,0.405
15.069,-0.66,0.39
15.072,-0.675,0.405
15.075,-0.665,0.405
15.078,-0.645,0.435
15.081,-0.64,0.425
15.083,-0.645,0.435
15.086,-0.635,0.42
15.089,-0.635,0.415
15.092,-0.63,0.42
15.094,-0.595,0.435
15.097,-0.59,0.43
15.1,-0.585,0.425
15.103,-0.58,0.415
15.106,-0.575,0.42
15.108,-0.57,0.435
15.111,-0.555,0.435
15.114,-0.54,0.43
15.117,-0.525,0.415
15.119,-0.52,0.4
15.122,-0.515,0.41
15.125,-0.5,0.42
15.128,-0.48,0.425
15.131,-0.46,0.42
15.133,-0.44,0.4
15.136,-0.43,0.395
15.139,-0.43,0.395
15.142,-0.41,0.38
15.144,-0.395,0.41
15.147,-0.36,0.395
15.15,-0.35,0.375
15.153,-0.345,0.37
15.156,-0.325,0.365
15.158,-0.31,0.365
15.161,-0.29,0.37
15.164,-0.275,0.365
15.167,-0.27,0.355
15.169,-0.27,0.355
15.172,-0.275,0.325
15.175,-0.25,0.34
15.178,-0.23,0.355
15.181,-0.21,0.335
15.183,-0.205,0.315
15.186,-0.21,0.3
15.189,-0.195,0.295
15.192,-0.155,0.285
15.194,-0.15,0.29
15.197,-0.145,0.285
15.2,-0.135,0.275
15.203,-0.135,0.275
15.206,-0.125,0.27
15.208,-0.09,0.27
15.211,-0.08,0.27
15.214,-0.06,0.275
15.217,-0.055,0.255
15.219,-0.075,0.23
15.222,-0.065,0.225
15.225,-0.055,0.24
15.228,-0.04,0.235
15.231,-0.04,0.21
15.233,-0.04,0.205
15.236,-0.065,0.175
15.239,-0.085,0.165
15.242,-0.075,0.16
15.244,-0.08,0.165
15.247,-0.08,0.16
15.25,-0.075,0.16
15.253,-0.07,0.14
15.256,-0.07,0.135
15.258,-0.05,0.165
15.261,-0.04,0.16
15.264,-0.04,0.155
15.267,-0.05,0.13
15.269,-0.065,0.145
15.272,-0.075,0.135
15.275,-0.065,0.14
15.278,-0.065,0.175
15.281,-0.075,0.15
15.283,-0.08,0.145
15.286,-0.095,0.15
15.289,-0.115,0.145
15.292,-0.11,0.15
15.294,-0.105,0.155
15.297,-0.1,0.17
15.3,-0.09,0.15
15.303,-0.11,0.155
15.306,-0.14,0.16
15.308,-0.135,0.17
15.311,-0.16,0.18
15.314,-0.17,0.18
15.317,-0.21,0.175
15.319,-0.245,0.17
15.322,-0.285,0.17
15.325,-0.305,0.185
15.328,-0.33,0.2
15.331,-0.36,0.195
15.333,-0.38,0.195
15.336,-0.4,0.19
15.339,-0.42,0.195
15.342,-0.42,0.21
15.344,-0.41,0.215
15.347,-0.41,0.2
15.35,-0.415,0.2
15.353,-0.43,0.185
15.356,-0.44,0.175
15.358,-0.435,0.2
15.361,-0.425,0.185
15.364,-0.43,0.2
15.367,-0.425,0.19
15.369,-0.435,0.185
15.372,-0.455,0.185
15.375,-0.45,0.175
15.378,-0.445,0.185
15.381,-0.44,0.18
15.383,-0.44,0.175
15.386,-0.455,0.18
15.389,-0.465,0.17
15.392,-0.455,0.18
15.394,-0.445,0.185
15.397,-0.455,0.195
15.4,-0.445,0.17
15.403,-0.45,0.16
15.406,-0.445,0.16
15.408,-0.445,0.17
15.411,-0.425,0.195
15.414,-0.42,0.17
15.417,-0.43,0.16
15.419,-0.43,0.16
15.422,-0.425,0.165
15.425,-0.425,0.165
15.428,-0.41,0.175
15.431,-0.425,0.16
15.433,-0.42,0.17
15.436,-0.43,0.16
15.439,-0.435,0.17
15.442,-0.43,0.165
15.444,-0.415,0.185
15.447,-0.39,0.165
15.45,-0.395,0.165
15.453,-0.405,0.165
15.456,-0.42,0.155
15.458,-0.415,0.18
15.461,-0.4,0.2
15.464,-0.395,0.2
15.467,-0.405,0.195
15.469,-0.43,0.225
15.472,-0.45,0.245
15.475,-0.435,0.275
15.478,-0.405,0.3
15.481,-0.375,0.3
15.483,-0.32,0.285
15.486,-0.23,0.26
15.489,-0.09,0.215
15.492,0.03,0.18
15.494,0.135,0.13
15.497,0.23,0.04
15.5,0.265,-0.03
15.503,0.285,-0.105
15.506,0.325,-0.18
15.508,0.41,-0.27
15.511,0.515,-0.365
15.514,0.6,-0.51
15.517,0.675,-0.665
15.519,0.725,-0.785
15.522,0.77,-0.895
15.525,0.805,-0.925
15.528,0.805,-0.93
15.531,0.78,-0.93
15.533,0.755,-0.925
15.536,0.72,-0.905
15.539,0.685,-0.86
15.542,0.615,-0.8
15.544,0.54,-0.745
15.547,0.445,-0.685
15.55,0.365,-0.635
15.553,0.29,-0.585
15.556,0.205,-0.54
15.558,0.14,-0.485
15.561,0.05,-0.425
15.564,-0.045,-0.395
15.567,-0.185,-0.345
15.569,-0.34,-0.315
15.572,-0.475,-0.275
15.575,-0.585,-0.235
15.578,-0.69,-0.195
15.581,-0.78,-0.17
15.583,-0.87,-0.145
15.586,-0.94,-0.125
15.589,-0.985,-0.09
15.592,-1,-0.06
15.594,-1,-0.035
15.597,-1.01,-0.015
15.6,-1.005,0.015
15.603,-1.015,0.02
15.606,-1.015,0.045
15.608,-1,0.085
15.611,-0.975,0.125
15.614,-0.95,0.14
15.617,-0.91,0.15
15.619,-0.885,0.175
15.622,-0.86,0.195
15.625,-0.835,0.215
15.628,-0.79,0.25
15.631,-0.77,0.26
15.633,-0.765,0.275
15.636,-0.745,0.28
15.639,-0.73,0.295
15.642,-0.69,0.31
15.644,-0.665,0.34
15.647,-0.65,0.345
15.65,-0.645,0.35
15.653,-0.645,0.345
15.656,-0.63,0.35
15.658,-0.625,0.35
15.661,-0.61,0.355
15.664,-0.59,0.34
15.667,-0.605,0.34
15.669,-0.62,0.345
15.672,-0.63,0.34
15.675,-0.63,0.355
15.678,-0.615,0.365
15.681,-0.615,0.365
15.683,-0.625,0.355
15.686,-0.635,0.355
15.689,-0.655,0.36
15.692,-0.63,0.38
15.694,-0.61,0.38
15.697,-0.625,0.385
15.7,-0.62,0.385
15.703,-0.635,0.375
15.706,-0.645,0.37
15.708,-0.635,0.385
15.711,-0.635,0.4
15.714,-0.615,0.4
15.717,-0.615,0.39
15.719,-0.62,0.39
15.722,-0.63,0.39
15.725,-0.63,0.395
15.728,-0.615,0.405
15.731,-0.605,0.415
15.733,-0.615,0.4
15.736,-0.615,0.4
15.739,-0.61,0.41
15.742,-0.6,0.415
15.744,-0.595,0.43
15.747,-0.57,0.415
15.75,-0.575,0.41
15.753,-0.575,0.405
15.756,-0.58,0.405
15.758,-0.555,0.41
15.761,-0.53,0.42
15.764,-0.52,0.415
15.767,-0.5,0.41
15.769,-0.515,0.405
15.772,-0.51,0.41
15.775,-0.48,0.405
15.778,-0.455,0.425
15.781,-0.44,0.415
15.783,-0.42,0.4
15.786,-0.4,0.385
15.789,-0.395,0.385
15.792,-0.395,0.39
15.794,-0.38,0.4
15.797,-0.345,0.385
15.8,-0.335,0.375
15.803,-0.33,0.36
15.806,-0.315,0.36
15.808,-0.295,0.37
15.811,-0.28,0.375
15.814,-0.27,0.355
15.817,-0.245,0.345
15.819,-0.235,0.34
15.822,-0.235,0.33
15.825,-0.215,0.34
15.828,-0.21,0.34
15.831,-0.185,0.32
15.833,-0.175,0.315
15.836,-0.185,0.3
15.839,-0.175,0.28
15.842,-0.16,0.295
15.844,-0.135,0.3
15.847,-0.12,0.28
15.85,-0.12,0.265
15.853,-0.12,0.26
15.856,-0.12,0.265
15.858,-0.115,0.27
15.861,-0.09,0.275
15.864,-0.07,0.265
15.867,-0.065,0.245
15.869,-0.06,0.23
15.872,-0.07,0.23
15.875,-0.06,0.23
15.878,-0.04,0.23
15.881,-0.03,0.22
15.883,-0.035,0.215
15.886,-0.05,0.19
15.889,-0.075,0.165
15.892,-0.08,0.185
15.894,-0.07,0.18
15.897,-0.06,0.17
15.9,-0.06,0.17
15.903,-0.06,0.17
15.906,-0.075,0.16
15.908,-0.06,0.165
15.911,-0.04,0.16
15.914,-0.03,0.155
15.917,-0.04,0.155
15.919,-0.055,0.13
15.922,-0.06,0.145
15.925,-0.055,0.16
15.928,-0.06,0.16
15.931,-0.065,0.16
15.933,-0.08,0.155
15.936,-0.1,0.15
15.939,-0.1,0.14
15.942,-0.1,0.17
15.944,-0.11,0.17
15.947,-0.08,0.17
15.95,-0.09,0.17
15.953,-0.115,0.165
15.956,-0.15,0.18
15.958,-0.16,0.19
15.961,-0.19,0.195
15.964,-0.205,0.195
15.967,-0.235,0.205
15.969,-0.265,0.185
15.972,-0.315,0.195
15.975,-0.325,0.205
15.978,-0.335,0.215
15.981,-0.35,0.205
15.983,-0.35,0.195
15.986,-0.37,0.195
15.989,-0.37,0.19
15.992,-0.375,0.205
15.994,-0.37,0.21
15.997,-0.375,0.21
16,-0.395,0.195
16.003,-0.395,0.19
16.006,-0.41,0.18
16.008,-0.42,0.195
16.011,-0.405,0.205
16.014,-0.415,0.19
16.017,-0.41,0.195
16.019,-0.41,0.19
16.022,-0.415,0.185
16.025,-0.41,0.185
16.028,-0.4,0.195
16.031,-0.395,0.195
16.033,-0.4,0.19
16.036,-0.42,0.18
16.039,-0.425,0.17
16.042,-0.43,0.185
16.044,-0.41,0.19
16.047,-0.395,0.195
16.05,-0.4,0.175
16.053,-0.405,0.18
16.056,-0.42,0.17
16.058,-0.4,0.18
16.061,-0.395,0.19
16.064,-0.39,0.185
16.067,-0.385,0.165
16.069,-0.4,0.16
16.072,-0.395,0.165
16.075,-0.375,0.165
16.078,-0.38,0.185
16.081,-0.37,0.18
16.083,-0.375,0.185
16.086,-0.38,0.16
16.089,-0.38,0.165
16.092,-0.38,0.18
16.094,-0.36,0.185
16.097,-0.355,0.185
16.1,-0.37,0.185
16.103,-0.385,0.21
16.106,-0.41,0.23
16.108,-0.415,0.265
16.111,-0.42,0.29
16.114,-0.405,0.295
16.117,-0.37,0.3
16.119,-0.33,0.275
16.122,-0.22,0.25
16.125,-0.08,0.205
16.128,0.04,0.155
16.131,0.135,0.07
16.133,0.17,-0.015
16.136,0.195,-0.1
16.139,0.245,-0.19
16.142,0.345,-0.29
16.144,0.495,-0.435
16.147,0.61,-0.605
16.15,0.69,-0.775
16.153,0.775,-0.89
16.156,0.815,-0.935
16.158,0.84,-0.96
16.161,0.855,-0.94
16.164,0.85,-0.955
16.167,0.825,-0.945
16.169,0.79,-0.905
16.172,0.74,-0.835
16.175,0.64,-0.78
16.178,0.56,-0.71
16.181,0.485,-0.655
16.183,0.42,-0.605
16.186,0.33,-0.57
16.189,0.235,-0.51
16.192,0.13,-0.45
16.194,0.005,-0.385
16.197,-0.13,-0.34
16.2,-0.275,-0.3
16.203,-0.42,-0.265
16.206,-0.56,-0.23
16.208,-0.69,-0.205
16.211,-0.77,-0.155
16.214,-0.825,-0.135
16.217,-0.865,-0.11
16.219,-0.92,-0.09
16.222,-0.93,-0.07
16.225,-0.935,-0.03
16.228,-0.93,0.005
16.231,-0.925,0.02
16.233,-0.925,0.03
16.236,-0.935,0.065
16.239,-0.93,0.085
16.242,-0.895,0.115
16.244,-0.86,0.155
16.247,-0.82,0.17
16.25,-0.79,0.185
16.253,-0.765,0.19
16.256,-0.765,0.225
16.258,-0.74,0.255
16.261,-0.715,0.275
16.264,-0.69,0.29
16.267,-0.66,0.3
16.269,-0.66,0.315
16.272,-0.625,0.315
16.275,-0.61,0.33
16.278,-0.605,0.355
16.281,-0.58,0.35
16.283,-0.565,0.35
16.286,-0.57,0.35
16.289,-0.57,0.35
16.292,-0.565,0.36
16.294,-0.56,0.365
16.297,-0.56,0.36
16.3,-0.565,0.355
16.303,-0.575,0.355
16.306,-0.585,0.355
16.308,-0.58,0.375
16.311,-0.575,0.375
16.314,-0.58,0.385
16.317,-0.585,0.375
16.319,-0.585,0.375
16.322,-0.605,0.38
16.325,-0.6,0.39
16.328,-0.585,0.395
16.331,-0.57,0.4
16.333,-0.595,0.4
16.336,-0.595,0.4
16.339,-0.605,0.405
16.342,-0.61,0.41
16.344,-0.6,0.425
16.347,-0.59,0.43
16.35,-0.585,0.415
16.353,-0.59,0.43
16.356,-0.595,0.415
16.358,-0.59,0.425
16.361,-0.58,0.455
16.364,-0.57,0.445
16.367,-0.56,0.43
16.369,-0.58,0.425
16.372,-0.585,0.44
16.375,-0.56,0.44
16.378,-0.545,0.45
16.381,-0.535,0.44
16.383,-0.535,0.435
16.386,-0.535,0.43
16.389,-0.545,0.425
16.392,-0.51,0.44
16.394,-0.5,0.435
16.397,-0.475,0.445
16.4,-0.47,0.43
16.403,-0.465,0.42
16.406,-0.46,0.415
16.408,-0.445,0.42
16.411,-0.42,0.43
16.414,-0.405,0.425
16.417,-0.39,0.41
16.419,-0.385,0.405
16.422,-0.375,0.395
16.425,-0.355,0.405
16.428,-0.335,0.41
16.431,-0.315,0.4
16.433,-0.295,0.385
16.436,-0.295,0.365
16.439,-0.285,0.37
16.442,-0.27,0.37
16.444,-0.245,0.385
16.447,-0.235,0.375
16.45,-0.205,0.36
16.453,-0.215,0.345
16.456,-0.195,0.335
16.458,-0.185,0.34
16.461,-0.165,0.34
16.464,-0.15,0.32
16.467,-0.15,0.31
16.469,-0.15,0.305
16.472,-0.15,0.305
16.475,-0.125,0.3
16.478,-0.115,0.3
16.481,-0.085,0.285
16.483,-0.08,0.265
16.486,-0.08,0.26
16.489,-0.085,0.26
16.492,-0.06,0.26
16.494,-0.035,0.26
16.497,-0.02,0.245
16.5,-0.01,0.245
16.503,-0.02,0.245
16.506,-0.015,0.23
16.508,0,0.23
16.511,0.01,0.235
16.514,0.02,0.23
16.517,0.015,0.21
16.519,-0.005,0.185
16.522,-0.03,0.17
16.525,-0.035,0.175
16.528,-0.025,0.18
16.531,-0.02,0.165
16.533,-0.035,0.16
16.536,-0.02,0.145
16.539,-0.025,0.15
16.542,-0.01,0.155
16.544,0.005,0.15
16.547,0,0.165
16.55,0,0.15
16.553,-0.02,0.16
16.556,-0.025,0.135
16.558,-0.03,0.17
16.561,-0.02,0.175
16.564,-0.02,0.16
16.567,-0.025,0.145
16.569,-0.065,0.155
16.572,-0.07,0.155
16.575,-0.07,0.16
16.578,-0.06,0.165
16.581,-0.07,0.165
16.583,-0.05,0.17
16.586,-0.065,0.155
16.589,-0.07,0.16
16.592,-0.085,0.18
16.594,-0.1,0.195
16.597,-0.125,0.19
16.6,-0.155,0.18
16.603,-0.195,0.16
16.606,-0.24,0.165
16.608,-0.255,0.185
16.611,-0.275,0.195
16.614,-0.3,0.19
16.617,-0.32,0.19
16.619,-0.335,0.175
16.622,-0.355,0.185
16.625,-0.35,0.2
16.628,-0.345,0.22
16.631,-0.335,0.21
16.633,-0.36,0.2
16.636,-0.37,0.19
16.639,-0.38,0.175
16.642,-0.38,0.195
16.644,-0.365,0.195
16.647,-0.36,0.19
16.65,-0.375,0.19
16.653,-0.385,0.18
16.656,-0.385,0.175
16.658,-0.38,0.185
16.661,-0.375,0.195
16.664,-0.37,0.185
16.667,-0.365,0.165
16.669,-0.38,0.17
16.672,-0.385,0.17
16.675,-0.375,0.17
16.678,-0.37,0.18
16.681,-0.355,0.19
16.683,-0.365,0.175
16.686,-0.37,0.165
16.689,-0.37,0.16
16.692,-0.37,0.165
16.694,-0.365,0.175
16.697,-0.355,0.18
16.7,-0.35,0.17
16.703,-0.36,0.16
16.706,-0.37,0.145
16.708,-0.36,0.16
16.711,-0.34,0.175
16.714,-0.34,0.155
16.717,-0.335,0.165
16.719,-0.35,0.15
16.722,-0.345,0.145
16.725,-0.345,0.16
16.728,-0.33,0.17
16.731,-0.33,0.18
16.733,-0.34,0.185
16.736,-0.37,0.2
16.739,-0.39,0.215
16.742,-0.41,0.255
16.744,-0.405,0.275
16.747,-0.41,0.29
16.75,-0.38,0.295
16.753,-0.305,0.26
16.756,-0.2,0.205
16.758,-0.07,0.155
16.761,0.055,0.09
16.764,0.13,-0.015
16.767,0.18,-0.1
16.769,0.24,-0.185
16.772,0.315,-0.3
16.775,0.46,-0.45
16.778,0.59,-0.635
16.781,0.705,-0.815
16.783,0.79,-0.935
16.786,0.855,-1
16.789,0.91,-1.025
16.792,0.945,-1.045
16.794,0.975,-1.03
16.797,0.965,-1.02
16.8,0.935,-0.965
16.803,0.87,-0.925
16.806,0.76,-0.85
16.808,0.645,-0.785
16.811,0.55,-0.7
16.814,0.465,-0.655
16.817,0.365,-0.58
16.819,0.23,-0.535
16.822,0.1,-0.48
16.825,-0.055,-0.405
16.828,-0.225,-0.355
16.831,-0.36,-0.305
16.833,-0.515,-0.275
16.836,-0.645,-0.25
16.839,-0.745,-0.22
16.842,-0.8,-0.17
16.844,-0.84,-0.13
16.847,-0.88,-0.11
16.85,-0.895,-0.075
16.853,-0.905,-0.07
16.856,-0.91,-0.04
16.858,-0.9,-0.015
16.861,-0.895,0.025
16.864,-0.89,0.05
16.867,-0.87,0.065
16.869,-0.85,0.095
16.872,-0.815,0.12
16.875,-0.785,0.155
16.878,-0.74,0.195
16.881,-0.72,0.22
16.883,-0.715,0.235
16.886,-0.695,0.24
16.889,-0.665,0.275
16.892,-0.64,0.28
16.894,-0.625,0.31
16.897,-0.59,0.305
16.9,-0.58,0.315
16.903,-0.58,0.31
16.906,-0.58,0.325
16.908,-0.56,0.335
16.911,-0.55,0.345
16.914,-0.54,0.33
16.917,-0.545,0.33
16.919,-0.565,0.33
16.922,-0.575,0.33
16.925,-0.56,0.355
16.928,-0.56,0.365
16.931,-0.555,0.355
16.933,-0.56,0.34
16.936,-0.585,0.345
16.939,-0.58,0.355
16.942,-0.59,0.37
16.944,-0.585,0.395
16.947,-0.58,0.38
16.95,-0.585,0.38
16.953,-0.585,0.375
16.956,-0.6,0.36
16.958,-0.59,0.395
16.961,-0.595,0.41
16.964,-0.565,0.39
16.967,-0.585,0.395
16.969,-0.59,0.39
16.972,-0.595,0.4
16.975,-0.59,0.41
16.978,-0.575,0.415
16.981,-0.57,0.415
16.983,-0.555,0.415
16.986,-0.555,0.4
16.989,-0.56,0.405
16.992,-0.555,0.425
16.994,-0.535,0.435
16.997,-0.53,0.425
17,-0.52,0.415
17.003,-0.51,0.405
17.006,-0.5,0.39
17.008,-0.48,0.415
17.011,-0.46,0.425
17.014,-0.44,0.425
17.017,-0.44,0.395
17.019,-0.435,0.395
17.022,-0.415,0.39
17.025,-0.395,0.4
17.028,-0.375,0.4
17.031,-0.35,0.39
17.033,-0.34,0.385
17.036,-0.35,0.37
17.039,-0.335,0.375
17.042,-0.315,0.375
17.044,-0.285,0.375
17.047,-0.275,0.355
17.05,-0.26,0.355
17.053,-0.25,0.345
17.056,-0.25,0.34
17.058,-0.225,0.335
17.061,-0.215,0.345
17.064,-0.18,0.335
17.067,-0.17,0.305
17.069,-0.17,0.295
17.072,-0.18,0.28
17.075,-0.145,0.295
17.078,-0.13,0.3
17.081,-0.105,0.285
17.083,-0.105,0.27
17.086,-0.09,0.245
17.089,-0.09,0.255
17.092,-0.065,0.24
17.094,-0.05,0.255
17.097,-0.025,0.25
17.1,-0.025,0.23
17.103,-0.02,0.23
17.106,-0.025,0.225
17.108,-0.01,0.23
17.111,0.005,0.23
17.114,0.02,0.215
17.117,0.02,0.19
17.119,0.01,0.18
17.122,-0.015,0.16
17.125,-0.02,0.16
17.128,-0.015,0.145
17.131,-0.015,0.14
17.133,-0.02,0.135
17.136,-0.015,0.125
17.139,-0.01,0.125
17.142,0,0.135
17.144,0,0.15
17.147,0.01,0.125
17.15,0.005,0.125
17.153,-0.015,0.115
17.156,-0.015,0.115
17.158,-0.015,0.13
17.161,-0.02,0.135
17.164,-0.025,0.14
17.167,-0.025,0.12
17.169,-0.05,0.115
17.172,-0.065,0.125
17.175,-0.065,0.135
17.178,-0.055,0.145
17.181,-0.055,0.135
17.183,-0.05,0.14
17.186,-0.065,0.145
17.189,-0.1,0.14
17.192,-0.115,0.145
17.194,-0.13,0.165
17.197,-0.165,0.17
17.2,-0.205,0.15
17.203,-0.235,0.155
17.206,-0.28,0.16
17.208,-0.305,0.175
17.211,-0.32,0.18
17.214,-0.34,0.17
17.217,-0.355,0.18
17.219,-0.365,0.16
17.222,-0.37,0.155
17.225,-0.375,0.17
17.228,-0.37,0.19
17.231,-0.38,0.175
17.233,-0.385,0.17
17.236,-0.385,0.175
17.239,-0.41,0.17
17.242,-0.4,0.17
17.244,-0.4,0.175
17.247,-0.395,0.165
17.25,-0.39,0.165
17.253,-0.395,0.16
17.256,-0.415,0.15
17.258,-0.4,0.16
17.261,-0.395,0.17
17.264,-0.39,0.17
17.267,-0.395,0.16
17.269,-0.395,0.155
17.272,-0.405,0.16
17.275,-0.39,0.15
17.278,-0.385,0.165
17.281,-0.37,0.155
17.283,-0.38,0.16
17.286,-0.39,0.15
17.289,-0.405,0.14
17.292,-0.395,0.15
17.294,-0.375,0.16
17.297,-0.365,0.16
17.3,-0.375,0.15
17.303,-0.375,0.14
17.306,-0.385,0.14
17.308,-0.375,0.15
17.311,-0.365,0.17
17.314,-0.36,0.155
17.317,-0.385,0.165
17.319,-0.395,0.16
17.322,-0.425,0.165
17.325,-0.435,0.18
17.328,-0.445,0.205
17.331,-0.48,0.215
17.333,-0.495,0.23
17.336,-0.55,0.255
17.339,-0.585,0.285
17.342,-0.605,0.32
17.344,-0.61,0.365
17.347,-0.6,0.375
17.35,-0.535,0.375
17.353,-0.435,0.375
17.356,-0.275,0.37
17.358,-0.085,0.345
17.361,0.095,0.29
17.364,0.225,0.25
17.367,0.285,0.205
17.369,0.37,0.135
17.372,0.52,0.03
17.375,0.73,-0.11
17.378,0.96,-0.26
17.381,1.175,-0.38
17.383,1.365,-0.43
17.386,1.5,-0.435
17.389,1.555,-0.405
17.392,1.485,-0.39
17.394,1.345,-0.345
17.397,1.14,-0.29
17.4,0.89,-0.225
17.403,0.635,-0.16
17.406,0.33,-0.115
17.408,0.03,-0.045
17.411,-0.16,0
17.414,-0.285,0.03
17.417,-0.395,0.035
17.419,-0.445,0.04
17.422,-0.46,0.055
17.425,-0.46,0.075
17.428,-0.45,0.1
17.431,-0.455,0.085
17.433,-0.465,0.09
17.436,-0.47,0.09
17.439,-0.485,0.085
17.442,-0.47,0.085
17.444,-0.475,0.11
17.447,-0.475,0.105
17.45,-0.48,0.1
17.453,-0.49,0.09
17.456,-0.495,0.095
17.458,-0.49,0.1
17.461,-0.49,0.1
17.464,-0.485,0.1
17.467,-0.49,0.1
17.469,-0.495,0.095
17.472,-0.515,0.095
17.475,-0.505,0.1
17.478,-0.505,0.11
17.481,-0.495,0.1
17.483,-0.51,0.09
17.486,-0.525,0.085
17.489,-0.53,0.08
17.492,-0.54,0.095
17.494,-0.525,0.09
17.497,-0.515,0.085
17.5,-0.535,0.08
17.503,-0.54,0.08
17.506,-0.56,0.07
17.508,-0.55,0.075
17.511,-0.56,0.08
17.514,-0.545,0.085
17.517,-0.555,0.07
17.519,-0.575,0.07
17.522,-0.575,0.055
17.525,-0.575,0.06
17.528,-0.58,0.08
17.531,-0.575,0.065
17.533,-0.575,0.065
17.536,-0.595,0.055
17.539,-0.605,0.05
17.542,-0.605,0.06
17.544,-0.6,0.07
17.547,-0.6,0.06
17.55,-0.595,0.05
17.553,-0.615,0.04
17.556,-0.625,0.035
17.558,-0.625,0.06
17.561,-0.61,0.06
17.564,-0.605,0.045
17.567,-0.62,0.025
17.569,-0.63,0.025
17.572,-0.625,0.035
17.575,-0.62,0.025
17.578,-0.62,0.045
17.581,-0.605,0.045
17.583,-0.605,0.035
17.586,-0.615,0.025
17.589,-0.62,0.025
17.592,-0.595,0.03
17.594,-0.59,0.035
17.597,-0.58,0.04
17.6,-0.575,0.02
17.603,-0.585,0.01
17.606,-0.575,0.005
17.608,-0.56,0.025
17.611,-0.55,0.035
17.614,-0.55,0.03
17.617,-0.53,0.02
17.619,-0.525,0.015
17.622,-0.525,0.005
17.625,-0.515,0.02
17.628,-0.505,0.035
17.631,-0.48,0.01
17.633,-0.49,0.02
17.636,-0.475,0
17.639,-0.475,0
17.642,-0.46,0.02
17.644,-0.435,0.025
17.647,-0.42,0.025
17.65,-0.415,0.035
17.653,-0.42,0.02
17.656,-0.42,0.02
17.658,-0.405,0.04
17.661,-0.38,0.05
17.664,-0.37,0.045
17.667,-0.36,0.035
17.669,-0.345,0.04
17.672,-0.34,0.035
17.675,-0.325,0.06
17.678,-0.31,0.055
17.681,-0.29,0.065
17.683,-0.3,0.05
17.686,-0.3,0.06
17.689,-0.29,0.06
17.692,-0.27,0.085
17.694,-0.24,0.08
17.697,-0.235,0.08
17.7,-0.22,0.075
17.703,-0.215,0.065
17.706,-0.205,0.085
17.708,-0.18,0.1
17.711,-0.15,0.11
17.714,-0.15,0.11
17.717,-0.145,0.1
17.719,-0.145,0.08
17.722,-0.15,0.09
17.725,-0.14,0.095
17.728,-0.12,0.1
17.731,-0.125,0.095
17.733,-0.14,0.07
17.736,-0.14,0.05
17.739,-0.15,0.065
17.742,-0.15,0.07
17.744,-0.13,0.085
17.747,-0.105,0.085
17.75,-0.1,0.08
17.753,-0.095,0.075
17.756,-0.11,0.065
17.758,-0.095,0.075
17.761,-0.085,0.08
17.764,-0.08,0.08
17.767,-0.09,0.09
17.769,-0.11,0.085
17.772,-0.125,0.075
17.775,-0.12,0.09
17.778,-0.115,0.09
17.781,-0.11,0.085
17.783,-0.125,0.075
17.786,-0.125,0.09
17.789,-0.12,0.085
17.792,-0.12,0.1
17.794,-0.12,0.12
17.797,-0.14,0.12
17.8,-0.155,0.11
17.803,-0.21,0.1
17.806,-0.24,0.1
17.808,-0.275,0.12
17.811,-0.285,0.135
17.814,-0.29,0.135
17.817,-0.34,0.125
17.819,-0.36,0.13
17.822,-0.39,0.135
17.825,-0.385,0.135
17.828,-0.385,0.145
17.831,-0.365,0.14
17.833,-0.385,0.145
17.836,-0.385,0.125
17.839,-0.415,0.12
17.842,-0.41,0.135
17.844,-0.395,0.14
17.847,-0.39,0.14
17.85,-0.41,0.135
17.853,-0.405,0.12
17.856,-0.41,0.13
17.858,-0.395,0.14
17.861,-0.39,0.135
17.864,-0.39,0.13
17.867,-0.395,0.125
17.869,-0.4,0.105
17.872,-0.415,0.115
17.875,-0.405,0.125
17.878,-0.395,0.14
17.881,-0.38,0.13
17.883,-0.39,0.115
17.886,-0.395,0.115
17.889,-0.41,0.115
17.892,-0.395,0.125
17.894,-0.385,0.125
17.897,-0.39,0.12
17.9,-0.395,0.11
17.903,-0.4,0.105
17.906,-0.4,0.12
17.908,-0.39,0.125
17.911,-0.385,0.135
17.914,-0.37,0.125
17.917,-0.365,0.115
17.919,-0.38,0.105
17.922,-0.385,0.105
17.925,-0.37,0.12
17.928,-0.36,0.125
17.931,-0.35,0.125
17.933,-0.36,0.125
17.936,-0.355,0.125
17.939,-0.37,0.135
17.942,-0.375,0.16
17.944,-0.38,0.205
17.947,-0.39,0.22
17.95,-0.4,0.235
17.953,-0.41,0.25
17.956,-0.4,0.255
17.958,-0.335,0.255
17.961,-0.215,0.25
17.964,-0.07,0.185
17.967,0.06,0.12
17.969,0.185,0.025
17.972,0.28,-0.075
17.975,0.355,-0.15
17.978,0.425,-0.215
17.981,0.53,-0.335
17.983,0.67,-0.48
17.986,0.775,-0.66
17.989,0.875,-0.83
17.992,0.97,-0.94
17.994,1.07,-1.03
17.997,1.14,-1.085
18,1.17,-1.09
18.003,1.16,-1.11
18.006,1.15,-1.09
18.008,1.095,-1.04
18.011,1.055,-0.975
18.014,0.97,-0.925
18.017,0.82,-0.865
18.019,0.665,-0.81
18.022,0.52,-0.74
18.025,0.435,-0.66
18.028,0.335,-0.6
18.031,0.22,-0.555
18.033,0.07,-0.52
18.036,-0.09,-0.465
18.039,-0.255,-0.41
18.042,-0.395,-0.365
18.044,-0.555,-0.32
18.047,-0.685,-0.285
18.05,-0.825,-0.255
18.053,-0.92,-0.245
18.056,-1,-0.21
18.058,-1.04,-0.155
18.061,-1.065,-0.115
18.064,-1.06,-0.095
18.067,-1.08,-0.085
18.069,-1.075,-0.065
18.072,-1.08,-0.04
18.075,-1.065,-0.005
18.078,-1.065,0.035
18.081,-1.04,0.065
18.083,-1.01,0.08
18.086,-0.975,0.09
18.089,-0.94,0.12
18.092,-0.895,0.145
18.094,-0.86,0.19
18.097,-0.84,0.205
18.1,-0.82,0.21
18.103,-0.825,0.22
18.106,-0.795,0.245
18.108,-0.755,0.27
18.111,-0.73,0.29
18.114,-0.705,0.295
18.117,-0.69,0.3
18.119,-0.675,0.285
18.122,-0.68,0.29
18.125,-0.66,0.305
18.128,-0.645,0.325
18.131,-0.645,0.3
18.133,-0.655,0.315
18.136,-0.66,0.3
18.139,-0.685,0.3
18.142,-0.675,0.305
18.144,-0.675,0.335
18.147,-0.675,0.335
18.15,-0.68,0.345
18.153,-0.69,0.33
18.156,-0.695,0.33
18.158,-0.695,0.34
18.161,-0.67,0.35
18.164,-0.69,0.35
18.167,-0.69,0.335
18.169,-0.705,0.33
18.172,-0.705,0.345
18.175,-0.695,0.35
18.178,-0.695,0.365
18.181,-0.7,0.36
18.183,-0.705,0.365
18.186,-0.71,0.37
18.189,-0.71,0.37
18.192,-0.71,0.385
18.194,-0.685,0.4
18.197,-0.68,0.395
18.2,-0.67,0.39
18.203,-0.68,0.38
18.206,-0.68,0.385
18.208,-0.67,0.4
18.211,-0.65,0.4
18.214,-0.64,0.4
18.217,-0.64,0.4
18.219,-0.66,0.39
18.222,-0.64,0.395
18.225,-0.615,0.39
18.228,-0.595,0.4
18.231,-0.58,0.405
18.233,-0.58,0.4
18.236,-0.58,0.385
18.239,-0.56,0.39
18.242,-0.54,0.385
18.244,-0.505,0.39
18.247,-0.495,0.38
18.25,-0.49,0.38
18.253,-0.47,0.355
18.256,-0.455,0.355
18.258,-0.445,0.365
18.261,-0.4,0.375
18.264,-0.395,0.355
18.267,-0.37,0.335
18.269,-0.37,0.33
18.272,-0.365,0.34
18.275,-0.33,0.335
18.278,-0.295,0.34
18.281,-0.295,0.325
18.283,-0.28,0.295
18.286,-0.26,0.31
18.289,-0.255,0.295
18.292,-0.235,0.295
18.294,-0.22,0.305
18.297,-0.21,0.285
18.3,-0.21,0.28
18.303,-0.205,0.255
18.306,-0.195,0.25
18.308,-0.18,0.255
18.311,-0.16,0.26
18.314,-0.14,0.255
18.317,-0.125,0.24
18.319,-0.115,0.23
18.322,-0.115,0.225
18.325,-0.105,0.225
18.328,-0.085,0.22
18.331,-0.07,0.22
18.333,-0.07,0.205
18.336,-0.08,0.19
18.339,-0.085,0.19
18.342,-0.07,0.175
18.344,-0.085,0.175
18.347,-0.085,0.15
18.35,-0.095,0.14
18.353,-0.105,0.125
18.356,-0.115,0.125
18.358,-0.105,0.14
18.361,-0.08,0.135
18.364,-0.065,0.125
18.367,-0.075,0.12
18.369,-0.09,0.105
18.372,-0.11,0.12
18.375,-0.105,0.125
18.378,-0.09,0.135
18.381,-0.09,0.12
18.383,-0.11,0.115
18.386,-0.13,0.11
18.389,-0.145,0.12
18.392,-0.135,0.125
18.394,-0.145,0.135
18.397,-0.135,0.135
18.4,-0.15,0.13
18.403,-0.16,0.12
18.406,-0.175,0.135
18.408,-0.2,0.145
18.411,-0.225,0.16
18.414,-0.255,0.16
18.417,-0.29,0.165
18.419,-0.315,0.15
18.422,-0.365,0.155
18.425,-0.38,0.17
18.428,-0.405,0.18
18.431,-0.435,0.175
18.433,-0.45,0.18
18.436,-0.465,0.165
18.439,-0.48,0.16
18.442,-0.48,0.18
18.444,-0.47,0.185
18.447,-0.47,0.18
18.45,-0.48,0.17
18.453,-0.495,0.17
18.456,-0.505,0.155
18.458,-0.5,0.17
18.461,-0.5,0.18
18.464,-0.495,0.18
18.467,-0.505,0.16
18.469,-0.525,0.155
18.472,-0.53,0.165
18.475,-0.515,0.17
18.478,-0.495,0.18
18.481,-0.505,0.175
18.483,-0.5,0.175
18.486,-0.515,0.16
18.489,-0.525,0.17
18.492,-0.51,0.175
18.494,-0.495,0.18
18.497,-0.49,0.175
18.5,-0.5,0.16
18.503,-0.5,0.15
18.506,-0.51,0.16
18.508,-0.505,0.16
18.511,-0.495,0.165
18.514,-0.47,0.16
18.517,-0.48,0.155
18.519,-0.49,0.145
18.522,-0.49,0.14
18.525,-0.475,0.16
18.528,-0.465,0.17
18.531,-0.455,0.175
18.533,-0.465,0.165
18.536,-0.475,0.155
18.539,-0.485,0.165
18.542,-0.48,0.175
18.544,-0.455,0.215
18.547,-0.465,0.24
18.55,-0.475,0.255
18.553,-0.485,0.275
18.556,-0.465,0.295
18.558,-0.385,0.285
18.561,-0.24,0.255
18.564,-0.085,0.205
18.567,0.04,0.14
18.569,0.145,0.04
18.572,0.21,-0.04
18.575,0.26,-0.11
18.578,0.335,-0.18
18.581,0.43,-0.3
18.583,0.55,-0.465
18.586,0.64,-0.645
18.589,0.735,-0.81
18.592,0.83,-0.94
18.594,0.88,-0.975
18.597,0.885,-0.99
18.6,0.86,-0.985
18.603,0.83,-0.97
18.606,0.785,-0.925
18.608,0.72,-0.855
18.611,0.625,-0.79
18.614,0.49,-0.72
18.617,0.385,-0.675
18.619,0.295,-0.615
18.622,0.19,-0.56
18.625,0.075,-0.505
18.628,-0.045,-0.43
18.631,-0.195,-0.395
18.633,-0.375,-0.355
18.636,-0.535,-0.3
18.639,-0.68,-0.27
18.642,-0.8,-0.225
18.644,-0.91,-0.185
18.647,-0.98,-0.145
18.65,-1.025,-0.115
18.653,-1.055,-0.115
18.656,-1.07,-0.07
18.658,-1.075,-0.04
18.661,-1.04,-0.015
18.664,-1.03,0.025
18.667,-1.04,0.03
18.669,-1.03,0.045
18.672,-1.01,0.085
18.675,-0.96,0.13
18.678,-0.925,0.155
18.681,-0.875,0.19
18.683,-0.85,0.185
18.686,-0.84,0.215
18.689,-0.83,0.23
18.692,-0.8,0.245
18.694,-0.77,0.275
18.697,-0.73,0.285
18.7,-0.715,0.285
18.703,-0.715,0.29
18.706,-0.705,0.3
18.708,-0.69,0.31
18.711,-0.675,0.32
18.714,-0.67,0.32
18.717,-0.665,0.305
18.719,-0.665,0.3
18.722,-0.665,0.31
18.725,-0.665,0.32
18.728,-0.655,0.325
18.731,-0.67,0.33
18.733,-0.675,0.33
18.736,-0.675,0.31
18.739,-0.675,0.315
18.742,-0.67,0.33
18.744,-0.665,0.345
18.747,-0.665,0.35
18.75,-0.67,0.335
18.753,-0.68,0.33
18.756,-0.685,0.325
18.758,-0.68,0.355
18.761,-0.67,0.36
18.764,-0.675,0.375
18.767,-0.68,0.355
18.769,-0.68,0.36
18.772,-0.675,0.36
18.775,-0.67,0.365
18.778,-0.665,0.39
18.781,-0.655,0.39
18.783,-0.67,0.375
18.786,-0.67,0.38
18.789,-0.67,0.39
18.792,-0.67,0.39
18.794,-0.645,0.4
18.797,-0.63,0.395
18.8,-0.615,0.38
18.803,-0.625,0.38
18.806,-0.62,0.38
18.808,-0.595,0.395
18.811,-0.585,0.395
18.814,-0.57,0.385
18.817,-0.56,0.37
18.819,-0.555,0.365
18.822,-0.555,0.37
18.825,-0.535,0.375
18.828,-0.51,0.39
18.831,-0.495,0.37
18.833,-0.48,0.36
18.836,-0.485,0.34
18.839,-0.47,0.355
18.842,-0.445,0.35
18.844,-0.43,0.36
18.847,-0.4,0.35
18.85,-0.39,0.335
18.853,-0.39,0.325
18.856,-0.39,0.315
18.858,-0.355,0.33
18.861,-0.345,0.325
18.864,-0.32,0.32
18.867,-0.32,0.31
18.869,-0.31,0.295
18.872,-0.3,0.3
18.875,-0.28,0.28
18.878,-0.265,0.295
18.881,-0.24,0.28
18.883,-0.235,0.27
18.886,-0.24,0.26
18.889,-0.235,0.25
18.892,-0.22,0.25
18.894,-0.21,0.26
18.897,-0.2,0.245
18.9,-0.2,0.23
18.903,-0.19,0.22
18.906,-0.195,0.22
18.908,-0.19,0.205
18.911,-0.175,0.21
18.914,-0.165,0.205
18.917,-0.165,0.2
18.919,-0.15,0.19
18.922,-0.15,0.19
18.925,-0.12,0.19
18.928,-0.115,0.185
18.931,-0.11,0.185
18.933,-0.115,0.17
18.936,-0.11,0.16
18.939,-0.12,0.155
18.942,-0.115,0.16
18.944,-0.115,0.15
18.947,-0.105,0.135
18.95,-0.125,0.105
18.953,-0.14,0.1
18.956,-0.155,0.095
18.958,-0.14,0.105
18.961,-0.125,0.115
18.964,-0.12,0.115
18.967,-0.115,0.11
18.969,-0.115,0.095
18.972,-0.115,0.085
18.975,-0.115,0.105
18.978,-0.11,0.105
18.981,-0.125,0.105
18.983,-0.12,0.105
18.986,-0.13,0.095
18.989,-0.15,0.11
18.992,-0.15,0.115
18.994,-0.145,0.125
18.997,-0.145,0.12
19,-0.155,0.115
19.003,-0.165,0.11
19.006,-0.16,0.12
19.008,-0.145,0.135
19.011,-0.145,0.145
19.014,-0.165,0.155
19.017,-0.195,0.145
19.019,-0.235,0.145
19.022,-0.275,0.14
19.025,-0.29,0.165
19.028,-0.305,0.155
19.031,-0.32,0.16
19.033,-0.355,0.15
19.036,-0.38,0.15
19.039,-0.42,0.155
19.042,-0.435,0.17
19.044,-0.425,0.18
19.047,-0.415,0.18
19.05,-0.42,0.17
19.053,-0.43,0.155
19.056,-0.46,0.15
19.058,-0.455,0.175
19.061,-0.45,0.18
19.064,-0.455,0.175
19.067,-0.46,0.16
19.069,-0.46,0.145
19.072,-0.465,0.14
19.075,-0.45,0.155
19.078,-0.455,0.17
19.081,-0.445,0.165
19.083,-0.455,0.155
19.086,-0.46,0.14
19.089,-0.47,0.14
19.092,-0.46,0.15
19.094,-0.445,0.16
19.097,-0.435,0.15
19.1,-0.45,0.135
19.103,-0.46,0.125
19.106,-0.46,0.135
19.108,-0.46,0.155
19.111,-0.44,0.16
19.114,-0.43,0.145
19.117,-0.44,0.135
19.119,-0.445,0.135
19.122,-0.455,0.135
19.125,-0.45,0.145
19.128,-0.415,0.15
19.131,-0.42,0.135
19.133,-0.425,0.125
19.136,-0.43,0.115
19.139,-0.435,0.125
19.142,-0.415,0.135
19.144,-0.415,0.145
19.147,-0.4,0.145
19.15,-0.41,0.145
19.153,-0.415,0.14
19.156,-0.43,0.17
19.158,-0.445,0.195
19.161,-0.455,0.235
19.164,-0.45,0.26
19.167,-0.455,0.27
19.169,-0.43,0.25
19.172,-0.34,0.22
19.175,-0.21,0.2
19.178,-0.065,0.15
19.181,0.045,0.055
19.183,0.13,-0.04
19.186,0.17,-0.12
19.189,0.215,-0.21
19.192,0.325,-0.31
19.194,0.455,-0.455
19.197,0.59,-0.655
19.2,0.695,-0.835
19.203,0.785,-0.96
19.206,0.85,-1.035
19.208,0.9,-1.05
19.211,0.92,-1.045
19.214,0.93,-1.03
19.217,0.9,-1.02
19.219,0.86,-0.97
19.222,0.78,-0.915
19.225,0.675,-0.84
19.228,0.565,-0.77
19.231,0.48,-0.705
19.233,0.39,-0.655
19.236,0.295,-0.6
19.239,0.155,-0.54
19.242,0.01,-0.48
19.244,-0.125,-0.42
19.247,-0.285,-0.365
19.25,-0.445,-0.34
19.253,-0.595,-0.315
19.256,-0.735,-0.275
19.258,-0.815,-0.23
19.261,-0.87,-0.19
19.264,-0.915,-0.145
19.267,-0.955,-0.125
19.269,-0.985,-0.115
19.272,-0.995,-0.075
19.275,-0.98,-0.04
19.278,-0.97,-0.005
19.281,-0.95,0.02
19.283,-0.94,0.04
19.286,-0.92,0.07
19.289,-0.885,0.11
19.292,-0.84,0.145
19.294,-0.8,0.175
19.297,-0.77,0.21
19.3,-0.76,0.21
19.303,-0.75,0.225
19.306,-0.715,0.23
19.308,-0.685,0.275
19.311,-0.66,0.28
19.314,-0.645,0.295
19.317,-0.625,0.285
19.319,-0.62,0.29
19.322,-0.63,0.295
19.325,-0.62,0.315
19.328,-0.61,0.325
19.331,-0.59,0.31
19.333,-0.61,0.305
19.336,-0.605,0.3
19.339,-0.61,0.31
19.342,-0.605,0.33
19.344,-0.61,0.34
19.347,-0.615,0.325
19.35,-0.615,0.33
19.353,-0.625,0.32
19.356,-0.64,0.325
19.358,-0.63,0.34
19.361,-0.625,0.355
19.364,-0.615,0.355
19.367,-0.62,0.35
19.369,-0.635,0.35
19.372,-0.645,0.36
19.375,-0.625,0.365
19.378,-0.625,0.375
19.381,-0.62,0.38
19.383,-0.62,0.375
19.386,-0.62,0.37
19.389,-0.635,0.375
19.392,-0.615,0.38
19.394,-0.595,0.385
19.397,-0.58,0.395
19.4,-0.59,0.395
19.403,-0.595,0.385
19.406,-0.585,0.39
19.408,-0.57,0.39
19.411,-0.545,0.395
19.414,-0.535,0.405
19.417,-0.53,0.39
19.419,-0.52,0.375
19.422,-0.525,0.385
19.425,-0.49,0.395
19.428,-0.475,0.39
19.431,-0.455,0.395
19.433,-0.44,0.36
19.436,-0.43,0.36
19.439,-0.435,0.35
19.442,-0.41,0.36
19.444,-0.38,0.365
19.447,-0.37,0.365
19.45,-0.35,0.34
19.453,-0.345,0.325
19.456,-0.345,0.33
19.458,-0.305,0.33
19.461,-0.29,0.33
19.464,-0.28,0.32
19.467,-0.27,0.31
19.469,-0.26,0.295
19.472,-0.245,0.28
19.475,-0.205,0.29
19.478,-0.2,0.28
19.481,-0.17,0.285
19.483,-0.185,0.265
19.486,-0.165,0.245
19.489,-0.16,0.24
19.492,-0.135,0.24
19.494,-0.12,0.225
19.497,-0.12,0.225
19.5,-0.11,0.19
19.503,-0.105,0.175
19.506,-0.1,0.17
19.508,-0.09,0.185
19.511,-0.07,0.195
19.514,-0.06,0.19
19.517,-0.04,0.175
19.519,-0.04,0.18
19.522,-0.03,0.17
19.525,-0.035,0.17
19.528,-0.025,0.18
19.531,-0.005,0.165
19.533,0.005,0.145
19.536,-0.015,0.13
19.539,-0.03,0.125
19.542,-0.02,0.13
19.544,-0.025,0.115
19.547,-0.04,0.105
19.55,-0.025,0.1
19.553,-0.03,0.095
19.556,-0.02,0.09
19.558,-0.005,0.095
19.561,0.005,0.1
19.564,0.005,0.1
19.567,-0.01,0.105
19.569,-0.03,0.08
19.572,-0.04,0.09
19.575,-0.055,0.11
19.578,-0.05,0.115
19.581,-0.05,0.12
19.583,-0.07,0.125
19.586,-0.085,0.1
19.589,-0.085,0.115
19.592,-0.085,0.12
19.594,-0.08,0.125
19.597,-0.085,0.13
19.6,-0.08,0.12
19.603,-0.1,0.12
19.606,-0.13,0.135
19.608,-0.11,0.14
19.611,-0.155,0.145
19.614,-0.18,0.14
19.617,-0.22,0.14
19.619,-0.25,0.14
19.622,-0.29,0.135
19.625,-0.31,0.145
19.628,-0.33,0.15
19.631,-0.35,0.15
19.633,-0.365,0.155
19.636,-0.375,0.145
19.639,-0.395,0.155
19.642,-0.39,0.175
19.644,-0.39,0.17
19.647,-0.395,0.165
19.65,-0.41,0.155
19.653,-0.415,0.15
19.656,-0.425,0.17
19.658,-0.415,0.155
19.661,-0.41,0.165
19.664,-0.41,0.165
19.667,-0.43,0.155
19.669,-0.425,0.145
19.672,-0.425,0.14
19.675,-0.42,0.15
19.678,-0.42,0.16
19.681,-0.415,0.16
19.683,-0.42,0.14
19.686,-0.425,0.125
19.689,-0.43,0.135
19.692,-0.41,0.135
19.694,-0.415,0.155
19.697,-0.41,0.145
19.7,-0.41,0.13
19.703,-0.42,0.13
19.706,-0.43,0.125
19.708,-0.425,0.14
19.711,-0.41,0.14
19.714,-0.4,0.14
19.717,-0.405,0.125
19.719,-0.41,0.12
19.722,-0.405,0.125
19.725,-0.41,0.13
19.728,-0.405,0.125
19.731,-0.39,0.13
19.733,-0.4,0.12
19.736,-0.4,0.115
19.739,-0.405,0.105
19.742,-0.385,0.12
19.744,-0.365,0.135
19.747,-0.365,0.14
19.75,-0.385,0.135
19.753,-0.41,0.14
19.756,-0.415,0.18
19.758,-0.425,0.21
19.761,-0.44,0.245
19.764,-0.435,0.255
19.767,-0.435,0.26
19.769,-0.39,0.235
19.772,-0.315,0.21
19.775,-0.17,0.185
19.778,-0.03,0.12
19.781,0.075,0.015
19.783,0.145,-0.075
19.786,0.19,-0.17
19.789,0.255,-0.25
19.792,0.38,-0.36
19.794,0.515,-0.53
19.797,0.655,-0.735
19.8,0.76,-0.9
19.803,0.86,-1.02
19.806,0.925,-1.075
19.808,0.99,-1.075
19.811,1.03,-1.075
19.814,1.045,-1.07
19.817,1.025,-1.055
19.819,0.985,-1.02
19.822,0.925,-0.95
19.825,0.81,-0.895
19.828,0.695,-0.82
19.831,0.595,-0.76
19.833,0.5,-0.7
19.836,0.395,-0.655
19.839,0.265,-0.58
19.842,0.13,-0.53
19.844,0,-0.47
19.847,-0.16,-0.42
19.85,-0.33,-0.375
19.853,-0.5,-0.33
19.856,-0.65,-0.295
19.858,-0.76,-0.26
19.861,-0.82,-0.23
19.864,-0.875,-0.19
19.867,-0.925,-0.17
19.869,-0.955,-0.14
19.872,-0.985,-0.125
19.875,-0.97,-0.085
19.878,-0.955,-0.045
19.881,-0.95,-0.025
19.883,-0.965,0
19.886,-0.96,0.01
19.889,-0.935,0.045
19.892,-0.88,0.085
19.894,-0.83,0.14
19.897,-0.81,0.155
19.9,-0.78,0.17
19.903,-0.765,0.185
19.906,-0.755,0.215
19.908,-0.72,0.235
19.911,-0.69,0.255
19.914,-0.66,0.28
19.917,-0.655,0.275
19.919,-0.63,0.26
19.922,-0.63,0.29
19.925,-0.615,0.3
19.928,-0.605,0.31
19.931,-0.595,0.305
19.933,-0.585,0.295
19.936,-0.6,0.295
19.939,-0.605,0.3
19.942,-0.605,0.31
19.944,-0.595,0.33
19.947,-0.595,0.33
19.95,-0.61,0.315
19.953,-0.605,0.315
19.956,-0.61,0.305
19.958,-0.61,0.325
19.961,-0.615,0.34
19.964,-0.615,0.34
19.967,-0.62,0.335
19.969,-0.635,0.32
19.972,-0.645,0.35
19.975,-0.625,0.355
19.978,-0.625,0.37
19.981,-0.625,0.365
19.983,-0.62,0.37
19.986,-0.64,0.36
19.989,-0.635,0.35
19.992,-0.63,0.375
19.994,-0.61,0.38
19.997,-0.615,0.37
20,-0.615,0.38
20.003,-0.62,0.365
20.006,-0.605,0.38
20.008,-0.6,0.39
20.011,-0.59,0.395
20.014,-0.58,0.395
20.017,-0.565,0.39
20.019,-0.575,0.38
20.022,-0.575,0.375
20.025,-0.555,0.39
20.028,-0.535,0.385
20.031,-0.515,0.385
20.033,-0.505,0.365
20.036,-0.505,0.355
20.039,-0.495,0.375
20.042,-0.485,0.375
20.044,-0.455,0.375
20.047,-0.43,0.37
20.05,-0.425,0.36
20.053,-0.405,0.34
20.056,-0.405,0.33
20.058,-0.365,0.345
20.061,-0.355,0.345
20.064,-0.34,0.335
20.067,-0.32,0.315
20.069,-0.32,0.31
20.072,-0.31,0.3
20.075,-0.275,0.33
20.078,-0.245,0.295
20.081,-0.245,0.295
20.083,-0.225,0.275
20.086,-0.21,0.265
20.089,-0.215,0.255
20.092,-0.195,0.255
20.094,-0.175,0.255
20.097,-0.16,0.25
20.1,-0.16,0.225
20.103,-0.16,0.215
20.106,-0.155,0.21
20.108,-0.125,0.215
20.111,-0.13,0.21
20.114,-0.1,0.21
20.117,-0.11,0.2
20.119,-0.095,0.185
20.122,-0.1,0.18
20.125,-0.08,0.17
20.128,-0.055,0.18
20.131,-0.035,0.17
20.133,-0.035,0.16
20.136,-0.04,0.15
20.139,-0.04,0.155
20.142,-0.025,0.165
20.144,-0.015,0.155
20.147,-0.01,0.15
20.15,-0.015,0.14
20.153,-0.045,0.11
20.156,-0.045,0.1
20.158,-0.055,0.095
20.161,-0.055,0.09
20.164,-0.03,0.1
20.167,-0.045,0.095
20.169,-0.04,0.08
20.172,-0.03,0.08
20.175,-0.025,0.085
20.178,-0.01,0.095
20.181,-0.025,0.095
20.183,-0.04,0.07
20.186,-0.05,0.065
20.189,-0.06,0.08
20.192,-0.065,0.105
20.194,-0.065,0.115
20.197,-0.07,0.115
20.2,-0.085,0.1
20.203,-0.105,0.1
20.206,-0.105,0.095
20.208,-0.095,0.1
20.211,-0.09,0.11
20.214,-0.095,0.105
20.217,-0.095,0.11
20.219,-0.12,0.095
20.222,-0.145,0.11
20.225,-0.15,0.12
20.228,-0.185,0.13
20.231,-0.215,0.125
20.233,-0.26,0.115
20.236,-0.295,0.095
20.239,-0.315,0.115
20.242,-0.34,0.13
20.244,-0.355,0.135
20.247,-0.365,0.13
20.25,-0.38,0.12
20.253,-0.41,0.12
20.256,-0.42,0.13
20.258,-0.42,0.15
20.261,-0.4,0.145
20.264,-0.41,0.145
20.267,-0.42,0.135
20.269,-0.43,0.12
20.272,-0.43,0.125
20.275,-0.425,0.14
20.278,-0.42,0.125
20.281,-0.405,0.13
20.283,-0.415,0.125
20.286,-0.425,0.11
20.289,-0.435,0.12
20.292,-0.435,0.13
20.294,-0.42,0.115
20.297,-0.415,0.115
20.3,-0.42,0.12
20.303,-0.43,0.11
20.306,-0.43,0.125
20.308,-0.425,0.12
20.311,-0.42,0.12
20.314,-0.41,0.13
20.317,-0.405,0.12
20.319,-0.42,0.095
20.322,-0.42,0.1
20.325,-0.405,0.125
20.328,-0.4,0.125
20.331,-0.4,0.12
20.333,-0.395,0.095
20.336,-0.41,0.095
20.339,-0.395,0.095
20.342,-0.41,0.12
20.344,-0.39,0.12
20.347,-0.385,0.105
20.35,-0.385,0.105
20.353,-0.39,0.085
20.356,-0.39,0.11
20.358,-0.38,0.11
20.361,-0.37,0.105
20.364,-0.37,0.115
20.367,-0.375,0.12
20.369,-0.39,0.12
20.372,-0.41,0.14
20.375,-0.425,0.18
20.378,-0.435,0.2
20.381,-0.445,0.235
20.383,-0.45,0.23
20.386,-0.435,0.235
20.389,-0.38,0.215
20.392,-0.275,0.19
20.394,-0.14,0.16
20.397,-0.02,0.08
20.4,0.095,-0.005
20.403,0.17,-0.105
20.406,0.22,-0.185
20.408,0.315,-0.26
20.411,0.44,-0.375
20.414,0.58,-0.54
20.417,0.705,-0.735
20.419,0.815,-0.905
20.422,0.91,-1.01
20.425,1.01,-1.085
20.428,1.085,-1.11
20.431,1.105,-1.125
20.433,1.125,-1.135
20.436,1.115,-1.125
20.439,1.08,-1.07
20.442,1.02,-1.015
20.444,0.945,-0.945
20.447,0.805,-0.885
20.45,0.67,-0.835
20.453,0.565,-0.78
20.456,0.465,-0.71
20.458,0.365,-0.66
20.461,0.25,-0.6
20.464,0.1,-0.535
20.467,-0.065,-0.495
20.469,-0.235,-0.455
20.472,-0.42,-0.4
20.475,-0.565,-0.355
20.478,-0.67,-0.305
20.481,-0.77,-0.285
20.483,-0.845,-0.26
20.486,-0.91,-0.235
20.489,-0.96,-0.205
20.492,-0.985,-0.165
20.494,-0.995,-0.13
20.497,-0.99,-0.105
20.5,-0.99,-0.105
20.503,-0.98,-0.085
20.506,-0.99,-0.04
20.508,-0.985,-0.015
20.511,-0.97,0.02
20.514,-0.935,0.04
20.517,-0.9,0.055
20.519,-0.87,0.075
20.522,-0.835,0.105
20.525,-0.81,0.15
20.528,-0.79,0.18
20.531,-0.765,0.195
20.533,-0.755,0.2
20.536,-0.735,0.22
20.539,-0.705,0.24
20.542,-0.68,0.265
20.544,-0.65,0.275
20.547,-0.63,0.28
20.55,-0.645,0.28
20.553,-0.63,0.28
20.556,-0.63,0.29
20.558,-0.61,0.305
20.561,-0.595,0.31
20.564,-0.585,0.3
20.567,-0.605,0.315
20.569,-0.6,0.28
20.572,-0.625,0.305
20.575,-0.615,0.315
20.578,-0.61,0.32
20.581,-0.61,0.325
20.583,-0.615,0.32
20.586,-0.625,0.31
20.589,-0.62,0.32
20.592,-0.62,0.335
20.594,-0.625,0.35
20.597,-0.62,0.355
20.6,-0.62,0.345
20.603,-0.65,0.335
20.606,-0.645,0.335
20.608,-0.635,0.355
20.611,-0.625,0.375
20.614,-0.625,0.37
20.617,-0.63,0.36
20.619,-0.635,0.355
20.622,-0.64,0.365
20.625,-0.63,0.375
20.628,-0.625,0.375
20.631,-0.615,0.38
20.633,-0.625,0.38
20.636,-0.625,0.375
20.639,-0.625,0.38
20.642,-0.61,0.395
20.644,-0.595,0.39
20.647,-0.6,0.4
20.65,-0.59,0.39
20.653,-0.58,0.385
20.656,-0.575,0.39
20.658,-0.56,0.395
20.661,-0.545,0.405
20.664,-0.53,0.395
20.667,-0.525,0.385
20.669,-0.52,0.375
20.672,-0.515,0.38
20.675,-0.495,0.375
20.678,-0.465,0.38
20.681,-0.455,0.385
20.683,-0.45,0.375
20.686,-0.435,0.35
20.689,-0.425,0.36
20.692,-0.395,0.36
20.694,-0.375,0.355
20.697,-0.36,0.35
20.7,-0.33,0.33
20.703,-0.335,0.31
20.706,-0.325,0.32
20.708,-0.295,0.33
20.711,-0.275,0.325
20.714,-0.265,0.315
20.717,-0.255,0.305
20.719,-0.245,0.285
20.722,-0.23,0.275
20.725,-0.205,0.275
20.728,-0.185,0.28
20.731,-0.175,0.26
20.733,-0.155,0.25
20.736,-0.165,0.24
20.739,-0.15,0.24
20.742,-0.125,0.225
20.744,-0.095,0.235
20.747,-0.095,0.205
20.75,-0.1,0.195
20.753,-0.1,0.175
20.756,-0.105,0.19
20.758,-0.075,0.175
20.761,-0.06,0.175
20.764,-0.06,0.165
20.767,-0.04,0.155
20.769,-0.035,0.145
20.772,-0.035,0.14
20.775,-0.015,0.16
20.778,-0.005,0.155
20.781,-0.01,0.15
20.783,-0.01,0.145
20.786,-0.02,0.115
20.789,-0.025,0.1
20.792,-0.02,0.115
20.794,-0.02,0.115
20.797,-0.04,0.1
20.8,-0.035,0.075
20.803,-0.04,0.075
20.806,-0.02,0.065
20.808,-0.005,0.08
20.811,0,0.085
20.814,0,0.085
20.817,-0.01,0.075
20.819,-0.02,0.06
20.822,-0.04,0.075
20.825,-0.05,0.085
20.828,-0.06,0.085
20.831,-0.065,0.09
20.833,-0.08,0.095
20.836,-0.09,0.075
20.839,-0.11,0.08
20.842,-0.095,0.09
20.844,-0.095,0.09
20.847,-0.105,0.095
20.85,-0.1,0.095
20.853,-0.125,0.085
20.856,-0.14,0.095
20.858,-0.155,0.105
20.861,-0.175,0.115
20.864,-0.23,0.105
20.867,-0.26,0.1
20.869,-0.29,0.095
20.872,-0.325,0.105
20.875,-0.34,0.12
20.878,-0.355,0.135
20.881,-0.385,0.135
20.883,-0.39,0.13
20.886,-0.4,0.115
20.889,-0.425,0.12
20.892,-0.415,0.125
20.894,-0.42,0.14
20.897,-0.415,0.125
20.9,-0.44,0.11
20.903,-0.435,0.11
20.906,-0.45,0.11
20.908,-0.435,0.12
20.911,-0.43,0.115
20.914,-0.435,0.12
20.917,-0.44,0.11
20.919,-0.435,0.1
20.922,-0.45,0.11
20.925,-0.44,0.115
20.928,-0.42,0.12
20.931,-0.42,0.12
20.933,-0.425,0.115
20.936,-0.43,0.095
20.939,-0.435,0.11
20.942,-0.42,0.11
20.944,-0.42,0.12
20.947,-0.415,0.11
20.95,-0.415,0.105
20.953,-0.415,0.09
20.956,-0.415,0.11
20.958,-0.425,0.1
20.961,-0.405,0.115
20.964,-0.405,0.105
20.967,-0.41,0.1
20.969,-0.415,0.085
20.972,-0.425,0.095
20.975,-0.415,0.11
20.978,-0.39,0.115
20.981,-0.385,0.105
20.983,-0.395,0.105
20.986,-0.4,0.085
20.989,-0.405,0.095
20.992,-0.39,0.11
20.994,-0.37,0.13
20.997,-0.375,0.13
21,-0.385,0.135
21.003,-0.415,0.135
21.006,-0.44,0.17
21.008,-0.43,0.215
21.011,-0.425,0.235
21.014,-0.42,0.25
21.017,-0.385,0.235
21.019,-0.31,0.215
21.022,-0.185,0.18
21.025,-0.04,0.14
21.028,0.1,0.075
21.031,0.205,-0.015
21.033,0.29,-0.115
21.036,0.35,-0.205
21.039,0.415,-0.275
21.042,0.535,-0.375
21.044,0.655,-0.505
21.047,0.775,-0.665
21.05,0.88,-0.83
21.053,0.975,-0.975
21.056,1.075,-1.07
21.058,1.155,-1.11
21.061,1.205,-1.11
21.064,1.215,-1.11
21.067,1.2,-1.105
21.069,1.155,-1.08
21.072,1.085,-1.015
21.075,1.02,-0.96
21.078,0.905,-0.895
21.081,0.75,-0.83
21.083,0.595,-0.77
21.086,0.47,-0.71
21.089,0.35,-0.65
21.092,0.245,-0.585
21.094,0.1,-0.525
21.097,-0.06,-0.465
21.1,-0.245,-0.44
21.103,-0.415,-0.395
21.106,-0.575,-0.345
21.108,-0.705,-0.3
21.111,-0.81,-0.265
21.114,-0.9,-0.23
21.117,-0.96,-0.205
21.119,-1.025,-0.185
21.122,-1.05,-0.15
21.125,-1.04,-0.13
21.128,-1.035,-0.1
21.131,-1.02,-0.065
21.133,-1.015,-0.045
21.136,-1.015,-0.04
21.139,-1.025,-0.005
21.142,-0.995,0.025
21.144,-0.96,0.06
21.147,-0.925,0.095
21.15,-0.88,0.095
21.153,-0.855,0.115
21.156,-0.845,0.145
21.158,-0.825,0.175
21.161,-0.775,0.195
21.164,-0.78,0.22
21.167,-0.765,0.23
21.169,-0.75,0.23
21.172,-0.71,0.255
21.175,-0.695,0.27
21.178,-0.675,0.28
21.181,-0.665,0.28
21.183,-0.64,0.28
21.186,-0.65,0.265
21.189,-0.65,0.295
21.192,-0.635,0.295
21.194,-0.63,0.3
21.197,-0.64,0.295
21.2,-0.64,0.295
21.203,-0.645,0.29
21.206,-0.64,0.295
21.208,-0.63,0.3
21.211,-0.635,0.31
21.214,-0.635,0.3
21.217,-0.635,0.31
21.219,-0.65,0.295
21.222,-0.665,0.305
21.225,-0.675,0.335
21.228,-0.665,0.34
21.231,-0.655,0.33
21.233,-0.67,0.325
21.236,-0.68,0.32
21.239,-0.685,0.34
21.242,-0.685,0.35
21.244,-0.66,0.345
21.247,-0.67,0.345
21.25,-0.68,0.335
21.253,-0.68,0.335
21.256,-0.685,0.355
21.258,-0.67,0.36
21.261,-0.67,0.37
21.264,-0.67,0.375
21.267,-0.66,0.365
21.269,-0.67,0.355
21.272,-0.67,0.365
21.275,-0.65,0.38
21.278,-0.64,0.38
21.281,-0.64,0.375
21.283,-0.625,0.37
21.286,-0.635,0.35
21.289,-0.625,0.38
21.292,-0.615,0.375
21.294,-0.6,0.375
21.297,-0.575,0.375
21.3,-0.575,0.365
21.303,-0.56,0.35
21.306,-0.555,0.355
21.308,-0.53,0.355
21.311,-0.53,0.36
21.314,-0.515,0.37
21.317,-0.495,0.35
21.319,-0.475,0.335
21.322,-0.495,0.34
21.325,-0.465,0.345
21.328,-0.45,0.35
21.331,-0.43,0.35
21.333,-0.415,0.33
21.336,-0.415,0.315
21.339,-0.395,0.32
21.342,-0.37,0.32
21.344,-0.35,0.32
21.347,-0.335,0.315
21.35,-0.34,0.305
21.353,-0.325,0.285
21.356,-0.315,0.28
21.358,-0.285,0.28
21.361,-0.265,0.295
21.364,-0.25,0.295
21.367,-0.245,0.27
21.369,-0.24,0.26
21.372,-0.23,0.255
21.375,-0.21,0.255
21.378,-0.19,0.26
21.381,-0.18,0.24
21.383,-0.18,0.225
21.386,-0.17,0.21
21.389,-0.17,0.205
21.392,-0.155,0.21
21.394,-0.13,0.205
21.397,-0.135,0.2
21.4,-0.135,0.18
21.403,-0.14,0.165
21.406,-0.13,0.175
21.408,-0.125,0.17
21.411,-0.105,0.165
21.414,-0.1,0.165
21.417,-0.1,0.155
21.419,-0.095,0.14
21.422,-0.08,0.14
21.425,-0.08,0.15
21.428,-0.065,0.165
21.431,-0.05,0.15
21.433,-0.055,0.135
21.436,-0.08,0.13
21.439,-0.075,0.135
21.442,-0.07,0.125
21.444,-0.06,0.135
21.447,-0.06,0.13
21.45,-0.095,0.11
21.453,-0.1,0.1
21.456,-0.115,0.09
21.458,-0.11,0.095
21.461,-0.095,0.095
21.464,-0.08,0.1
21.467,-0.07,0.08
21.469,-0.07,0.075
21.472,-0.08,0.08
21.475,-0.07,0.095
21.478,-0.065,0.1
21.481,-0.065,0.1
21.483,-0.085,0.09
21.486,-0.11,0.085
21.489,-0.125,0.095
21.492,-0.135,0.11
21.494,-0.115,0.115
21.497,-0.125,0.11
21.5,-0.13,0.105
21.503,-0.145,0.09
21.506,-0.155,0.095
21.508,-0.15,0.115
21.511,-0.14,0.12
21.514,-0.145,0.115
21.517,-0.155,0.115
21.519,-0.185,0.115
21.522,-0.205,0.11
21.525,-0.205,0.125
21.528,-0.23,0.135
21.531,-0.265,0.12
21.533,-0.29,0.12
21.536,-0.33,0.12
21.539,-0.355,0.115
21.542,-0.37,0.145
21.544,-0.39,0.14
21.547,-0.395,0.15
21.55,-0.405,0.135
21.553,-0.435,0.115
21.556,-0.435,0.13
21.558,-0.44,0.15
21.561,-0.445,0.14
21.564,-0.44,0.15
21.567,-0.465,0.135
21.569,-0.46,0.12
21.572,-0.47,0.125
21.575,-0.46,0.14
21.578,-0.435,0.14
21.581,-0.44,0.135
21.583,-0.445,0.13
21.586,-0.45,0.11
21.589,-0.455,0.12
21.592,-0.445,0.12
21.594,-0.44,0.135
21.597,-0.435,0.115
21.6,-0.435,0.12
21.603,-0.445,0.105
21.606,-0.44,0.11
21.608,-0.45,0.12
21.611,-0.435,0.115
21.614,-0.425,0.115
21.617,-0.435,0.12
21.619,-0.44,0.095
21.622,-0.44,0.105
21.625,-0.435,0.11
21.628,-0.415,0.115
21.631,-0.425,0.115
21.633,-0.425,0.1
21.636,-0.425,0.095
21.639,-0.415,0.105
21.642,-0.41,0.105
21.644,-0.41,0.115
21.647,-0.405,0.11
21.65,-0.4,0.095
21.653,-0.41,0.09
21.656,-0.405,0.09
21.658,-0.39,0.1
21.661,-0.38,0.13
21.664,-0.385,0.145
21.667,-0.395,0.135
21.669,-0.42,0.16
21.672,-0.435,0.165
21.675,-0.435,0.205
21.678,-0.415,0.23
21.681,-0.4,0.24
21.683,-0.365,0.23
21.686,-0.285,0.205
21.689,-0.16,0.18
21.692,-0.005,0.135
21.694,0.125,0.085
21.697,0.24,-0.005
21.7,0.315,-0.095
21.703,0.355,-0.175
21.706,0.4,-0.24
21.708,0.515,-0.33
21.711,0.63,-0.465
21.714,0.725,-0.615
21.717,0.83,-0.77
21.719,0.925,-0.92
21.722,1.005,-1.005
21.725,1.06,-1.045
21.728,1.08,-1.035
21.731,1.065,-1.045
21.733,1.045,-1.04
21.736,1,-1
21.739,0.945,-0.95
21.742,0.86,-0.89
21.744,0.755,-0.83
21.747,0.62,-0.76
21.75,0.5,-0.72
21.753,0.395,-0.665
21.756,0.29,-0.605
21.758,0.18,-0.53
21.761,0.05,-0.475
21.764,-0.12,-0.43
21.767,-0.295,-0.39
21.769,-0.455,-0.36
21.772,-0.595,-0.305
21.775,-0.72,-0.265
21.778,-0.825,-0.235
21.781,-0.89,-0.19
21.783,-0.945,-0.165
21.786,-1,-0.165
21.789,-1.005,-0.125
21.792,-1.02,-0.095
21.794,-1,-0.055
21.797,-0.995,-0.04
21.8,-0.98,-0.03
21.803,-1,-0.015
21.806,-0.99,0.025
21.808,-0.955,0.06
21.811,-0.92,0.09
21.814,-0.875,0.11
21.817,-0.84,0.13
21.819,-0.825,0.13
21.822,-0.82,0.165
21.825,-0.78,0.19
21.828,-0.765,0.21
21.831,-0.74,0.225
21.833,-0.725,0.23
21.836,-0.7,0.245
21.839,-0.685,0.26
21.842,-0.66,0.265
21.844,-0.635,0.29
21.847,-0.64,0.285
21.85,-0.625,0.28
21.853,-0.63,0.28
21.856,-0.615,0.275
21.858,-0.615,0.285
21.861,-0.605,0.29
21.864,-0.61,0.295
21.867,-0.615,0.28
21.869,-0.62,0.28
21.872,-0.625,0.28
21.875,-0.63,0.295
21.878,-0.61,0.295
21.881,-0.62,0.305
21.883,-0.62,0.295
21.886,-0.65,0.29
21.889,-0.66,0.295
21.892,-0.64,0.31
21.894,-0.64,0.32
21.897,-0.65,0.32
21.9,-0.645,0.32
21.903,-0.65,0.315
21.906,-0.655,0.32
21.908,-0.655,0.335
21.911,-0.64,0.355
21.914,-0.645,0.345
21.917,-0.64,0.33
21.919,-0.65,0.33
21.922,-0.655,0.34
21.925,-0.635,0.35
21.928,-0.63,0.35
21.931,-0.625,0.36
21.933,-0.645,0.35
21.936,-0.645,0.335
21.939,-0.65,0.35
21.942,-0.63,0.365
21.944,-0.615,0.36
21.947,-0.6,0.365
21.95,-0.6,0.35
21.953,-0.605,0.365
21.956,-0.595,0.355
21.958,-0.58,0.37
21.961,-0.565,0.38
21.964,-0.55,0.365
21.967,-0.545,0.355
21.969,-0.535,0.355
21.972,-0.53,0.345
21.975,-0.515,0.37
21.978,-0.5,0.365
21.981,-0.475,0.355
21.983,-0.46,0.335
21.986,-0.46,0.335
21.989,-0.44,0.335
21.992,-0.42,0.335
21.994,-0.4,0.34
21.997,-0.375,0.335
22,-0.37,0.32
22.003,-0.36,0.3
22.006,-0.35,0.3
22.008,-0.335,0.305
22.011,-0.3,0.3
22.014,-0.285,0.3
22.017,-0.275,0.295
22.019,-0.28,0.28
22.022,-0.265,0.28
22.025,-0.235,0.28
22.028,-0.21,0.275
22.031,-0.205,0.28
22.033,-0.205,0.26
22.036,-0.2,0.23
22.039,-0.19,0.25
22.042,-0.165,0.245
22.044,-0.15,0.245
22.047,-0.135,0.225
22.05,-0.135,0.21
22.053,-0.145,0.195
22.056,-0.13,0.205
22.058,-0.125,0.195
22.061,-0.11,0.19
22.064,-0.115,0.185
22.067,-0.11,0.165
22.069,-0.115,0.155
22.072,-0.115,0.155
22.075,-0.105,0.165
22.078,-0.085,0.165
22.081,-0.085,0.155
22.083,-0.09,0.14
22.086,-0.085,0.125
22.089,-0.08,0.135
22.092,-0.07,0.13
22.094,-0.06,0.13
22.097,-0.055,0.135
22.1,-0.05,0.13
22.103,-0.07,0.125
22.106,-0.08,0.125
22.108,-0.06,0.125
22.111,-0.055,0.13
22.114,-0.05,0.115
22.117,-0.07,0.11
22.119,-0.09,0.09
22.122,-0.1,0.08
22.125,-0.095,0.09
22.128,-0.085,0.09
22.131,-0.075,0.08
22.133,-0.08,0.075
22.136,-0.08,0.075
22.139,-0.075,0.075
22.142,-0.065,0.095
22.144,-0.05,0.1
22.147,-0.065,0.095
22.15,-0.06,0.08
22.153,-0.08,0.07
22.156,-0.085,0.085
22.158,-0.09,0.095
22.161,-0.095,0.1
22.164,-0.105,0.1
22.167,-0.105,0.1
22.169,-0.125,0.095
22.172,-0.14,0.095
22.175,-0.125,0.105
22.178,-0.115,0.11
22.181,-0.105,0.11
22.183,-0.12,0.105
22.186,-0.12,0.095
22.189,-0.16,0.115
22.192,-0.16,0.13
22.194,-0.165,0.12
22.197,-0.2,0.125
22.2,-0.245,0.12
22.203,-0.275,0.11
22.206,-0.305,0.12
22.208,-0.315,0.135
22.211,-0.335,0.12
22.214,-0.36,0.135
22.217,-0.38,0.14
22.219,-0.405,0.13
22.222,-0.42,0.135
22.225,-0.415,0.15
22.228,-0.41,0.14
22.231,-0.415,0.14
22.233,-0.42,0.145
22.236,-0.435,0.13
22.239,-0.435,0.125
22.242,-0.43,0.135
22.244,-0.43,0.14
22.247,-0.425,0.145
22.25,-0.435,0.135
22.253,-0.445,0.12
22.256,-0.43,0.12
22.258,-0.43,0.135
22.261,-0.425,0.14
22.264,-0.42,0.14
22.267,-0.435,0.125
22.269,-0.455,0.115
22.272,-0.445,0.12
22.275,-0.43,0.12
22.278,-0.425,0.125
22.281,-0.425,0.125
22.283,-0.42,0.105
22.286,-0.42,0.115
22.289,-0.415,0.1
22.292,-0.41,0.125
22.294,-0.4,0.13
22.297,-0.4,0.11
22.3,-0.405,0.11
22.303,-0.42,0.095
22.306,-0.425,0.11
22.308,-0.42,0.12
22.311,-0.4,0.12
22.314,-0.395,0.115
22.317,-0.4,0.105
22.319,-0.4,0.1
22.322,-0.405,0.11
22.325,-0.39,0.115
22.328,-0.375,0.11
22.331,-0.37,0.12
22.333,-0.385,0.095
22.336,-0.39,0.105
22.339,-0.385,0.12
22.342,-0.38,0.145
22.344,-0.39,0.155
22.347,-0.41,0.19
22.35,-0.42,0.21
22.353,-0.44,0.22
22.356,-0.43,0.24
22.358,-0.42,0.245
22.361,-0.345,0.24
22.364,-0.26,0.225
22.367,-0.155,0.17
22.369,-0.05,0.12
22.372,0.055,0.05
22.375,0.155,-0.015
22.378,0.225,-0.1
22.381,0.265,-0.175
22.383,0.355,-0.28
22.386,0.48,-0.425
22.389,0.6,-0.6
22.392,0.74,-0.76
22.394,0.84,-0.905
22.397,0.92,-1.005
22.4,0.985,-1.055
22.403,1.01,-1.085
22.406,1.025,-1.08
22.408,1.01,-1.06
22.411,1.01,-0.995
22.414,0.955,-0.945
22.417,0.85,-0.895
22.419,0.7,-0.84
22.422,0.58,-0.76
22.425,0.49,-0.69
22.428,0.415,-0.64
22.431,0.29,-0.58
22.433,0.14,-0.53
22.436,-0.005,-0.47
22.439,-0.175,-0.42
22.442,-0.345,-0.36
22.444,-0.485,-0.32
22.447,-0.625,-0.28
22.45,-0.75,-0.255
22.453,-0.82,-0.235
22.456,-0.875,-0.195
22.458,-0.905,-0.15
22.461,-0.915,-0.11
22.464,-0.94,-0.09
22.467,-0.925,-0.085
22.469,-0.925,-0.06
22.472,-0.935,-0.025
22.475,-0.925,0.01
22.478,-0.925,0.035
22.481,-0.885,0.055
22.483,-0.865,0.07
22.486,-0.84,0.095
22.489,-0.815,0.125
22.492,-0.775,0.155
22.494,-0.74,0.195
22.497,-0.725,0.2
22.5,-0.705,0.22
22.503,-0.71,0.235
22.506,-0.675,0.25
22.508,-0.65,0.275
22.511,-0.62,0.29
22.514,-0.595,0.295
22.517,-0.6,0.295
22.519,-0.605,0.28
22.522,-0.595,0.29
22.525,-0.585,0.3
22.528,-0.58,0.305
22.531,-0.56,0.305
22.533,-0.58,0.31
22.536,-0.59,0.29
22.539,-0.595,0.305
22.542,-0.59,0.32
22.544,-0.575,0.34
22.547,-0.59,0.335
22.55,-0.6,0.32
22.553,-0.615,0.32
22.556,-0.61,0.345
22.558,-0.61,0.34
22.561,-0.595,0.345
22.564,-0.6,0.35
22.567,-0.615,0.335
22.569,-0.62,0.345
22.572,-0.63,0.35
22.575,-0.62,0.36
22.578,-0.615,0.385
22.581,-0.62,0.375
22.583,-0.62,0.37
22.586,-0.63,0.365
22.589,-0.625,0.38
22.592,-0.61,0.39
22.594,-0.6,0.39
22.597,-0.595,0.4
22.6,-0.595,0.39
22.603,-0.595,0.39
22.606,-0.595,0.39
22.608,-0.575,0.405
22.611,-0.555,0.42
22.614,-0.56,0.41
22.617,-0.535,0.4
22.619,-0.55,0.39
22.622,-0.525,0.39
22.625,-0.515,0.4
22.628,-0.495,0.41
22.631,-0.485,0.4
22.633,-0.48,0.39
22.636,-0.475,0.365
22.639,-0.46,0.37
22.642,-0.435,0.38
22.644,-0.41,0.39
22.647,-0.395,0.385
22.65,-0.385,0.365
22.653,-0.395,0.355
22.656,-0.36,0.355
22.658,-0.34,0.375
22.661,-0.31,0.36
22.664,-0.295,0.36
22.667,-0.28,0.33
22.669,-0.28,0.32
22.672,-0.265,0.32
22.675,-0.235,0.325
22.678,-0.21,0.32
22.681,-0.195,0.3
22.683,-0.195,0.3
22.686,-0.195,0.275
22.689,-0.18,0.28
22.692,-0.15,0.28
22.694,-0.14,0.28
22.697,-0.13,0.28
22.7,-0.13,0.25
22.703,-0.125,0.23
22.706,-0.125,0.24
22.708,-0.11,0.24
22.711,-0.08,0.225
22.714,-0.09,0.225
22.717,-0.085,0.2
22.719,-0.1,0.185
22.722,-0.095,0.195
22.725,-0.08,0.195
22.728,-0.065,0.195
22.731,-0.065,0.18
22.733,-0.075,0.165
22.736,-0.07,0.155
22.739,-0.075,0.16
22.742,-0.05,0.175
22.744,-0.035,0.175
22.747,-0.035,0.175
22.75,-0.025,0.165
22.753,-0.045,0.155
22.756,-0.045,0.16
22.758,-0.04,0.165
22.761,-0.03,0.15
22.764,-0.035,0.15
22.767,-0.04,0.135
22.769,-0.05,0.11
22.772,-0.05,0.11
22.775,-0.03,0.125
22.778,-0.01,0.125
22.781,-0.01,0.13
22.783,-0.02,0.125
22.786,-0.025,0.125
22.789,-0.03,0.13
22.792,-0.03,0.13
22.794,-0.02,0.14
22.797,-0.025,0.14
22.8,-0.07,0.145
22.803,-0.08,0.13
22.806,-0.085,0.15
22.808,-0.075,0.145
22.811,-0.06,0.15
22.814,-0.055,0.15
22.817,-0.07,0.14
22.819,-0.085,0.145
22.822,-0.095,0.165
22.825,-0.105,0.165
22.828,-0.125,0.17
22.831,-0.15,0.18
22.833,-0.195,0.155
22.836,-0.22,0.155
22.839,-0.26,0.16
22.842,-0.285,0.17
22.844,-0.3,0.175
22.847,-0.33,0.18
22.85,-0.35,0.165
22.853,-0.37,0.16
22.856,-0.38,0.18
22.858,-0.385,0.18
22.861,-0.37,0.19
22.864,-0.375,0.18
22.867,-0.395,0.175
22.869,-0.4,0.155
22.872,-0.405,0.165
22.875,-0.4,0.185
22.878,-0.39,0.18
22.881,-0.395,0.185
22.883,-0.395,0.16
22.886,-0.405,0.155
22.889,-0.405,0.155
22.892,-0.4,0.17
22.894,-0.39,0.165
22.897,-0.385,0.175
22.9,-0.395,0.16
22.903,-0.4,0.15
22.906,-0.395,0.155
22.908,-0.375,0.155
22.911,-0.375,0.17
22.914,-0.375,0.16
22.917,-0.385,0.155
22.919,-0.38,0.15
22.922,-0.39,0.145
22.925,-0.38,0.16
22.928,-0.36,0.15
22.931,-0.365,0.16
22.933,-0.365,0.14
22.936,-0.375,0.135
22.939,-0.375,0.135
22.942,-0.36,0.15
22.944,-0.36,0.15
22.947,-0.365,0.15
22.95,-0.36,0.14
22.953,-0.355,0.125
22.956,-0.36,0.15
22.958,-0.35,0.155
22.961,-0.335,0.165
22.964,-0.34,0.165
22.967,-0.345,0.17
22.969,-0.35,0.17
22.972,-0.38,0.18
22.975,-0.395,0.235
22.978,-0.4,0.26
22.981,-0.405,0.285
22.983,-0.41,0.285
22.986,-0.37,0.275
22.989,-0.29,0.245
22.992,-0.15,0.215
22.994,-0.015,0.16
22.997,0.115,0.075
23,0.195,-0.025
23.003,0.25,-0.115
23.006,0.32,-0.205
23.008,0.45,-0.31
23.011,0.6,-0.475
23.014,0.735,-0.67
23.017,0.84,-0.845
23.019,0.935,-0.98
23.022,1.03,-1.025
23.025,1.1,-1.04
23.028,1.155,-1.045
23.031,1.165,-1.05
23.033,1.155,-1.055
23.036,1.12,-1.005
23.039,1.06,-0.95
23.042,0.98,-0.865
23.044,0.845,-0.82
23.047,0.72,-0.755
23.05,0.61,-0.695
23.053,0.51,-0.65
23.056,0.4,-0.585
23.058,0.28,-0.505
23.061,0.13,-0.46
23.064,-0.035,-0.415
23.067,-0.215,-0.36
23.069,-0.39,-0.33
23.072,-0.56,-0.265
