391.25,0.3,-1.54
391.25,0.31,-1.76
391.26,0.305,-1.925
391.26,0.325,-2.06
391.26,0.345,-2.18
391.26,0.37,-2.25
391.27,0.37,-2.37
391.27,0.35,-2.48
391.27,0.34,-2.605
391.27,0.31,-2.72
391.28,0.265,-2.78
391.28,0.215,-2.82
391.28,0.15,-2.86
391.29,0.075,-2.915
391.29,0.045,-2.945
391.29,-0.025,-2.965
391.29,-0.115,-2.985
391.3,-0.23,-2.99
391.3,-0.29,-3
391.3,-0.325,-3.01
391.31,-0.335,-3.01
391.31,-0.31,-3.02
391.31,-0.29,-2.995
391.31,-0.285,-2.97
391.32,-0.295,-2.93
391.32,-0.305,-2.88
391.32,-0.345,-2.81
391.32,-0.385,-2.7
391.33,-0.4,-2.6
391.33,-0.425,-2.445
391.33,-0.42,-2.335
391.34,-0.425,-2.185
391.34,-0.415,-2.005
391.34,-0.43,-1.795
391.34,-0.43,-1.545
391.35,-0.43,-1.315
391.35,-0.435,-1.11
391.35,-0.43,-0.905
391.36,-0.43,-0.685
391.36,-0.445,-0.475
391.36,-0.44,-0.275
391.36,-0.44,-0.1
391.37,-0.455,0.06
391.37,-0.46,0.175
391.37,-0.47,0.295
391.38,-0.49,0.425
391.38,-0.465,0.55
391.38,-0.44,0.625
391.38,-0.44,0.685
391.39,-0.435,0.73
391.39,-0.44,0.76
391.39,-0.44,0.805
391.39,-0.425,0.845
391.4,-0.425,0.88
391.4,-0.425,0.915
391.4,-0.42,0.93
391.41,-0.43,0.955
391.41,-0.435,1
391.41,-0.425,1.04
391.41,-0.41,1.095
391.42,-0.405,1.115
391.42,-0.41,1.135
391.42,-0.425,1.17
391.42,-0.425,1.215
391.43,-0.435,1.25
391.43,-0.43,1.295
391.43,-0.425,1.325
391.44,-0.43,1.355
391.44,-0.435,1.39
391.44,-0.45,1.425
391.44,-0.445,1.48
391.45,-0.455,1.515
391.45,-0.435,1.545
391.45,-0.45,1.59
391.46,-0.445,1.615
391.46,-0.46,1.655
391.46,-0.445,1.695
391.46,-0.435,1.745
391.47,-0.43,1.77
391.47,-0.43,1.805
391.47,-0.425,1.83
391.47,-0.425,1.855
391.48,-0.42,1.89
391.48,-0.405,1.92
391.48,-0.395,1.95
391.49,-0.39,1.95
391.49,-0.4,1.955
391.49,-0.39,1.97
391.49,-0.375,1.995
391.5,-0.36,2
391.5,-0.345,1.995
391.5,-0.355,1.975
391.51,-0.345,1.955
391.51,-0.345,1.945
391.51,-0.325,1.94
391.51,-0.31,1.91
391.52,-0.295,1.885
391.52,-0.285,1.85
391.52,-0.285,1.8
391.52,-0.285,1.75
391.53,-0.27,1.72
391.53,-0.25,1.685
391.53,-0.235,1.62
391.54,-0.23,1.545
391.54,-0.22,1.485
391.54,-0.23,1.415
391.54,-0.215,1.365
391.55,-0.205,1.305
391.55,-0.19,1.235
391.55,-0.19,1.175
391.56,-0.195,1.1
391.56,-0.21,1.03
391.56,-0.2,0.965
391.56,-0.195,0.91
391.57,-0.185,0.855
391.57,-0.195,0.8
391.57,-0.2,0.72
391.57,-0.215,0.665
391.58,-0.21,0.635
391.58,-0.205,0.585
391.58,-0.2,0.535
391.59,-0.205,0.48
391.59,-0.215,0.43
391.59,-0.23,0.4
391.59,-0.225,0.37
391.6,-0.21,0.345
391.6,-0.22,0.31
391.6,-0.23,0.29
391.61,-0.245,0.255
391.61,-0.25,0.235
391.61,-0.25,0.22
391.61,-0.245,0.2
391.62,-0.24,0.175
391.62,-0.255,0.155
391.62,-0.26,0.135
391.62,-0.27,0.115
391.63,-0.26,0.115
391.63,-0.26,0.115
391.63,-0.255,0.095
391.64,-0.27,0.08
391.64,-0.27,0.065
391.64,-0.295,0.055
391.64,-0.275,0.06
391.65,-0.275,0.06
391.65,-0.27,0.06
391.65,-0.28,0.045
391.66,-0.28,0.035
391.66,-0.28,0.035
391.66,-0.28,0.04
391.66,-0.285,0.04
391.67,-0.27,0.04
391.67,-0.27,0.035
391.67,-0.295,0.02
391.67,-0.29,0.025
391.68,-0.28,0.025
391.68,-0.27,0.03
391.68,-0.27,0.03
391.69,-0.27,0.025
391.69,-0.28,0.025
391.69,-0.29,0.02
391.69,-0.29,0.04
391.7,-0.275,0.035
391.7,-0.26,0.035
391.7,-0.27,0.035
391.71,-0.28,0.035
391.71,-0.285,0.02
391.71,-0.275,0.035
391.71,-0.26,0.05
391.72,-0.265,0.05
391.72,-0.27,0.04
391.72,-0.275,0.035
391.72,-0.29,0.035
391.73,-0.29,0.05
391.73,-0.27,0.06
391.73,-0.265,0.05
391.74,-0.27,0.04
391.74,-0.28,0.04
391.74,-0.29,0.035
391.74,-0.28,0.05
391.75,-0.275,0.055
391.75,-0.28,0.04
391.75,-0.285,0.035
391.76,-0.29,0.02
391.76,-0.31,0.035
391.76,-0.305,0.035
391.76,-0.29,0.035
391.77,-0.285,0.02
391.77,-0.295,0.005
391.77,-0.31,0.005
391.77,-0.32,0.005
391.78,-0.295,0.01
391.78,-0.29,0
391.78,-0.29,0
391.79,-0.305,-0.01
391.79,-0.305,-0.02
391.79,-0.32,-0.025
391.79,-0.315,-0.02
391.8,-0.295,-0.015
391.8,-0.295,-0.025
391.8,-0.315,-0.03
391.81,-0.325,-0.04
391.81,-0.32,-0.055
391.81,-0.325,-0.045
391.81,-0.315,-0.035
391.82,-0.315,-0.045
391.82,-0.33,-0.055
391.82,-0.325,-0.065
391.82,-0.34,-0.06
391.83,-0.345,-0.055
391.83,-0.32,-0.045
391.83,-0.33,-0.05
391.84,-0.335,-0.065
391.84,-0.35,-0.08
391.84,-0.35,-0.085
391.84,-0.34,-0.08
391.85,-0.34,-0.06
391.85,-0.32,-0.07
391.85,-0.33,-0.085
391.86,-0.34,-0.095
391.86,-0.34,-0.09
391.86,-0.34,-0.08
391.86,-0.33,-0.08
391.87,-0.325,-0.08
391.87,-0.33,-0.095
391.87,-0.34,-0.11
391.88,-0.35,-0.1
391.88,-0.35,-0.085
391.88,-0.335,-0.075
391.88,-0.33,-0.08
391.89,-0.335,-0.07
391.89,-0.35,-0.085
391.89,-0.35,-0.065
391.89,-0.355,-0.06
391.9,-0.34,-0.05
391.9,-0.35,-0.045
391.9,-0.355,-0.05
391.91,-0.355,-0.05
391.91,-0.36,-0.04
391.91,-0.365,-0.045
391.91,-0.35,-0.035
391.92,-0.35,-0.025
391.92,-0.35,-0.05
391.92,-0.345,-0.06
391.92,-0.34,-0.06
391.93,-0.32,-0.06
391.93,-0.31,-0.055
391.93,-0.305,-0.065
391.94,-0.305,-0.08
391.94,-0.305,-0.105
391.94,-0.315,-0.11
391.94,-0.305,-0.105
391.95,-0.285,-0.11
391.95,-0.275,-0.125
391.95,-0.27,-0.135
391.96,-0.275,-0.145
391.96,-0.29,-0.16
391.96,-0.29,-0.15
391.96,-0.275,-0.14
391.97,-0.265,-0.155
391.97,-0.27,-0.145
391.97,-0.275,-0.13
391.97,-0.28,-0.075
391.98,-0.265,0.055
391.98,-0.245,0.34
391.98,-0.225,0.74
391.99,-0.205,0.91
391.99,-0.17,0.725
391.99,-0.03,0.46
391.99,0.33,0.335
392,0.68,0.295
392,0.71,0.26
392,0.445,0.21
392.01,0.18,0.17
392.01,0.06,0.135
392.01,0.07,0.1
392.01,0.115,0.02
392.02,0.135,-0.1
392.02,0.145,-0.26
392.02,0.145,-0.46
392.02,0.145,-0.695
392.03,0.18,-0.925
392.03,0.2,-1.16
392.03,0.21,-1.4
392.04,0.2,-1.655
392.04,0.2,-1.84
392.04,0.2,-1.975
392.04,0.235,-2.065
392.05,0.275,-2.135
392.05,0.3,-2.21
392.05,0.29,-2.315
392.06,0.3,-2.435
392.06,0.31,-2.535
392.06,0.32,-2.62
392.06,0.315,-2.69
392.07,0.27,-2.745
392.07,0.22,-2.8
392.07,0.17,-2.84
392.07,0.13,-2.88
392.08,0.095,-2.91
392.08,0.04,-2.93
392.08,-0.05,-2.955
392.09,-0.14,-2.965
392.09,-0.215,-3.005
392.09,-0.23,-3.005
392.09,-0.21,-3.01
392.1,-0.185,-2.995
392.1,-0.185,-2.98
392.1,-0.21,-2.975
392.11,-0.24,-2.945
392.11,-0.28,-2.87
392.11,-0.33,-2.78
392.11,-0.365,-2.68
392.12,-0.395,-2.58
392.12,-0.415,-2.47
392.12,-0.43,-2.34
392.12,-0.44,-2.165
392.13,-0.44,-1.94
392.13,-0.425,-1.72
392.13,-0.445,-1.48
392.14,-0.45,-1.265
392.14,-0.46,-1.045
392.14,-0.46,-0.82
392.14,-0.46,-0.585
392.15,-0.455,-0.375
392.15,-0.475,-0.19
392.15,-0.5,-0.04
392.16,-0.515,0.11
392.16,-0.535,0.25
392.16,-0.525,0.39
392.16,-0.5,0.52
392.17,-0.495,0.635
392.17,-0.49,0.68
392.17,-0.5,0.735
392.17,-0.495,0.785
392.18,-0.485,0.84
392.18,-0.485,0.885
392.18,-0.47,0.915
392.19,-0.47,0.94
392.19,-0.47,0.98
392.19,-0.48,1.01
392.19,-0.465,1.05
392.2,-0.455,1.095
392.2,-0.465,1.125
392.2,-0.455,1.145
392.21,-0.475,1.185
392.21,-0.46,1.22
392.21,-0.455,1.265
392.21,-0.45,1.3
392.22,-0.45,1.335
392.22,-0.45,1.365
392.22,-0.45,1.4
392.22,-0.45,1.43
392.23,-0.445,1.485
392.23,-0.43,1.54
392.23,-0.43,1.585
392.24,-0.43,1.605
392.24,-0.445,1.635
392.24,-0.44,1.68
392.24,-0.435,1.725
392.25,-0.425,1.765
392.25,-0.415,1.795
392.25,-0.425,1.83
392.26,-0.425,1.85
392.26,-0.425,1.89
392.26,-0.41,1.92
392.26,-0.395,1.955
392.27,-0.395,1.975
392.27,-0.39,1.985
392.27,-0.39,2
392.27,-0.395,2.015
392.28,-0.385,2.04
392.28,-0.365,2.05
392.28,-0.35,2.055
392.29,-0.345,2.045
392.29,-0.345,2.025
392.29,-0.345,2.025
392.29,-0.325,2.01
392.3,-0.305,2.005
392.3,-0.31,1.97
392.3,-0.31,1.93
392.31,-0.3,1.895
392.31,-0.29,1.855
392.31,-0.285,1.81
392.31,-0.28,1.775
392.32,-0.27,1.72
392.32,-0.27,1.655
392.32,-0.26,1.595
392.32,-0.27,1.54
392.33,-0.26,1.48
392.33,-0.245,1.415
392.33,-0.245,1.34
392.34,-0.25,1.27
392.34,-0.255,1.2
392.34,-0.26,1.14
392.34,-0.25,1.075
392.35,-0.25,1.025
392.35,-0.24,0.96
392.35,-0.25,0.89
392.36,-0.265,0.825
392.36,-0.27,0.745
392.36,-0.27,0.725
392.36,-0.255,0.675
392.37,-0.25,0.62
392.37,-0.265,0.555
392.37,-0.28,0.5
392.38,-0.28,0.465
392.38,-0.28,0.435
392.38,-0.265,0.4
392.38,-0.28,0.365
392.39,-0.29,0.33
392.39,-0.295,0.3
392.39,-0.305,0.265
392.39,-0.295,0.25
392.4,-0.29,0.25
392.4,-0.3,0.21
392.4,-0.305,0.19
392.41,-0.32,0.165
392.41,-0.325,0.155
392.41,-0.32,0.15
392.41,-0.325,0.14
392.42,-0.315,0.135
392.42,-0.325,0.11
392.42,-0.315,0.09
392.42,-0.335,0.09
392.43,-0.315,0.09
392.43,-0.315,0.08
392.43,-0.31,0.065
392.44,-0.31,0.055
392.44,-0.335,0.05
392.44,-0.335,0.04
392.44,-0.32,0.055
392.45,-0.315,0.055
392.45,-0.325,0.04
392.45,-0.325,0.05
392.46,-0.34,0.025
392.46,-0.345,0.03
392.46,-0.33,0.025
392.46,-0.32,0.035
392.47,-0.31,0.03
392.47,-0.315,0.025
392.47,-0.33,0.005
392.47,-0.33,0.02
392.48,-0.32,0.03
392.48,-0.315,0.035
392.48,-0.31,0.03
392.49,-0.32,0.025
392.49,-0.34,0.015
392.49,-0.345,0.02
392.49,-0.34,0.025
392.5,-0.32,0.035
392.5,-0.32,0.03
392.5,-0.33,0.03
392.51,-0.335,0.015
392.51,-0.32,0.02
392.51,-0.315,0.045
392.51,-0.315,0.035
392.52,-0.325,0.04
392.52,-0.34,0.04
392.52,-0.355,0.025
392.52,-0.36,0.035
392.53,-0.35,0.045
392.53,-0.315,0.05
392.53,-0.32,0.05
392.54,-0.33,0.04
392.54,-0.34,0.03
392.54,-0.355,0.045
392.54,-0.35,0.04
392.55,-0.345,0.045
392.55,-0.34,0.045
392.55,-0.34,0.035
392.56,-0.345,0.015
392.56,-0.345,0.02
392.56,-0.34,0.03
392.56,-0.345,0.035
392.57,-0.35,0.025
392.57,-0.365,0
392.57,-0.38,-0.005
392.57,-0.385,0
392.58,-0.37,0.01
392.58,-0.35,0.015
392.58,-0.35,0.015
392.59,-0.35,-0.005
392.59,-0.365,-0.02
392.59,-0.375,-0.015
392.59,-0.355,-0.015
392.6,-0.35,-0.015
392.6,-0.36,-0.01
392.6,-0.38,-0.03
392.61,-0.385,-0.035
392.61,-0.39,-0.035
392.61,-0.38,-0.03
392.61,-0.37,-0.03
392.62,-0.36,-0.04
392.62,-0.375,-0.035
392.62,-0.385,-0.055
392.62,-0.38,-0.06
392.63,-0.37,-0.04
392.63,-0.37,-0.035
392.63,-0.365,-0.04
392.64,-0.385,-0.045
392.64,-0.39,-0.07
392.64,-0.405,-0.06
392.64,-0.39,-0.06
392.65,-0.395,-0.055
392.65,-0.385,-0.06
392.65,-0.385,-0.07
392.66,-0.375,-0.09
392.66,-0.39,-0.08
392.66,-0.385,-0.085
392.66,-0.37,-0.065
392.67,-0.375,-0.08
392.67,-0.38,-0.09
392.67,-0.4,-0.105
392.67,-0.395,-0.095
392.68,-0.375,-0.08
392.68,-0.37,-0.08
392.68,-0.365,-0.075
392.69,-0.395,-0.09
392.69,-0.395,-0.1
392.69,-0.41,-0.1
392.69,-0.385,-0.09
392.7,-0.385,-0.085
392.7,-0.37,-0.09
392.7,-0.375,-0.09
392.71,-0.385,-0.095
392.71,-0.395,-0.105
392.71,-0.385,-0.09
392.71,-0.38,-0.1
392.72,-0.385,-0.09
392.72,-0.37,-0.105
392.72,-0.395,-0.115
392.72,-0.38,-0.11
392.73,-0.365,-0.1
392.73,-0.365,-0.085
392.73,-0.365,-0.095
392.74,-0.385,-0.1
392.74,-0.4,-0.105
392.74,-0.405,-0.105
392.74,-0.39,-0.1
392.75,-0.38,-0.1
392.75,-0.36,-0.1
392.75,-0.37,-0.115
392.76,-0.38,-0.115
392.76,-0.39,-0.105
392.76,-0.38,-0.1
392.76,-0.365,-0.09
392.77,-0.36,-0.105
392.77,-0.365,-0.115
392.77,-0.38,-0.115
392.77,-0.39,-0.115
392.78,-0.39,-0.105
392.78,-0.39,-0.095
392.78,-0.395,-0.095
392.79,-0.37,-0.115
392.79,-0.38,-0.105
392.79,-0.375,-0.09
392.79,-0.35,-0.075
392.8,-0.35,-0.04
392.8,-0.325,0.01
392.8,-0.315,0.15
392.81,-0.3,0.465
392.81,-0.28,0.855
392.81,-0.245,1.02
392.81,-0.19,0.82
392.82,-0.025,0.545
392.82,0.305,0.385
392.82,0.63,0.335
392.82,0.675,0.285
392.83,0.44,0.255
392.83,0.16,0.2
392.83,0.055,0.13
392.84,0.045,0.03
392.84,0.05,-0.095
392.84,0.05,-0.25
392.84,0.035,-0.415
392.85,0.035,-0.585
392.85,0.05,-0.8
392.85,0.075,-1.035
392.86,0.085,-1.235
392.86,0.105,-1.41
392.86,0.105,-1.575
392.86,0.085,-1.715
392.87,0.07,-1.865
392.87,0.055,-2.035
392.87,0.055,-2.235
392.88,0.07,-2.41
392.88,0.095,-2.525
392.88,0.095,-2.605
392.88,0.075,-2.695
392.89,0.03,-2.78
392.89,-0.025,-2.865
392.89,-0.09,-2.91
392.89,-0.16,-2.95
392.9,-0.22,-2.955
392.9,-0.26,-2.985
392.9,-0.315,-3.01
392.91,-0.385,-3.03
392.91,-0.485,-3.035
392.91,-0.57,-3.025
392.91,-0.63,-3.03
392.92,-0.64,-3.015
392.92,-0.625,-3.03
392.92,-0.595,-3.04
392.92,-0.59,-3.01
392.93,-0.56,-2.995
392.93,-0.565,-2.95
392.93,-0.56,-2.895
392.94,-0.56,-2.83
392.94,-0.55,-2.725
392.94,-0.555,-2.595
392.94,-0.53,-2.445
392.95,-0.505,-2.29
392.95,-0.485,-2.1
392.95,-0.47,-1.89
392.96,-0.445,-1.675
392.96,-0.425,-1.45
392.96,-0.405,-1.215
392.96,-0.41,-0.98
392.97,-0.415,-0.775
392.97,-0.45,-0.61
392.97,-0.475,-0.44
392.97,-0.47,-0.27
392.98,-0.465,-0.11
392.98,-0.475,0.055
392.98,-0.48,0.205
392.99,-0.49,0.32
392.99,-0.49,0.435
392.99,-0.485,0.54
392.99,-0.465,0.615
393,-0.455,0.655
393,-0.465,0.7
393,-0.47,0.735
393.01,-0.47,0.745
393.01,-0.47,0.795
393.01,-0.46,0.845
393.01,-0.445,0.87
393.02,-0.445,0.895
393.02,-0.45,0.915
393.02,-0.455,0.93
393.02,-0.45,0.96
393.03,-0.435,0.995
393.03,-0.425,1.025
393.03,-0.42,1.04
393.04,-0.435,1.055
393.04,-0.44,1.07
393.04,-0.455,1.1
393.04,-0.455,1.125
393.05,-0.45,1.165
393.05,-0.45,1.18
393.05,-0.435,1.195
393.06,-0.445,1.215
393.06,-0.45,1.255
393.06,-0.44,1.29
393.06,-0.43,1.32
393.07,-0.415,1.345
393.07,-0.4,1.35
393.07,-0.39,1.375
393.07,-0.39,1.415
393.08,-0.39,1.435
393.08,-0.385,1.48
393.08,-0.375,1.5
393.09,-0.405,1.52
393.09,-0.4,1.53
393.09,-0.415,1.575
393.09,-0.375,1.6
393.1,-0.355,1.635
393.1,-0.345,1.665
393.1,-0.36,1.67
393.11,-0.375,1.69
393.11,-0.385,1.715
393.11,-0.375,1.74
393.11,-0.355,1.76
393.12,-0.34,1.785
393.12,-0.325,1.78
393.12,-0.33,1.78
393.12,-0.335,1.79
393.13,-0.32,1.805
393.13,-0.295,1.815
393.13,-0.28,1.8
393.14,-0.275,1.775
393.14,-0.265,1.76
393.14,-0.28,1.755
393.14,-0.265,1.73
393.15,-0.25,1.715
393.15,-0.23,1.69
393.15,-0.23,1.635
393.16,-0.22,1.59
393.16,-0.215,1.55
393.16,-0.215,1.515
393.16,-0.2,1.45
393.17,-0.2,1.395
393.17,-0.195,1.33
393.17,-0.195,1.26
393.17,-0.19,1.19
393.18,-0.185,1.145
393.18,-0.175,1.085
393.18,-0.165,1.02
393.19,-0.16,0.95
393.19,-0.18,0.875
393.19,-0.19,0.81
393.19,-0.205,0.77
393.2,-0.2,0.72
393.2,-0.2,0.665
393.2,-0.19,0.61
393.21,-0.19,0.55
393.21,-0.19,0.51
393.21,-0.18,0.485
393.21,-0.17,0.455
393.22,-0.175,0.41
393.22,-0.2,0.375
393.22,-0.215,0.335
393.22,-0.22,0.315
393.23,-0.21,0.29
393.23,-0.22,0.275
393.23,-0.225,0.235
393.24,-0.245,0.21
393.24,-0.27,0.18
393.24,-0.265,0.17
393.24,-0.265,0.17
393.25,-0.265,0.155
393.25,-0.255,0.14
393.25,-0.275,0.125
393.26,-0.285,0.1
393.26,-0.295,0.1
393.26,-0.285,0.095
393.26,-0.275,0.085
393.27,-0.25,0.095
393.27,-0.245,0.085
393.27,-0.265,0.065
393.27,-0.29,0.075
393.28,-0.29,0.075
393.28,-0.275,0.08
393.28,-0.265,0.07
393.29,-0.265,0.065
393.29,-0.265,0.05
393.29,-0.275,0.05
393.29,-0.27,0.06
393.3,-0.27,0.075
393.3,-0.28,0.06
393.3,-0.28,0.06
393.31,-0.3,0.055
393.31,-0.295,0.055
393.31,-0.285,0.07
393.31,-0.275,0.065
393.32,-0.27,0.065
393.32,-0.295,0.06
393.32,-0.29,0.055
393.32,-0.31,0.055
393.33,-0.285,0.06
393.33,-0.285,0.07
393.33,-0.28,0.065
393.34,-0.275,0.055
393.34,-0.295,0.055
393.34,-0.295,0.05
393.34,-0.295,0.075
393.35,-0.31,0.07
393.35,-0.3,0.06
393.35,-0.31,0.055
393.36,-0.315,0.045
393.36,-0.31,0.055
393.36,-0.315,0.06
393.36,-0.31,0.055
393.37,-0.305,0.065
393.37,-0.305,0.04
393.37,-0.31,0.03
393.38,-0.305,0.035
393.38,-0.3,0.055
393.38,-0.32,0.055
393.38,-0.31,0.04
393.39,-0.315,0.025
393.39,-0.315,0.02
393.39,-0.315,0.025
393.39,-0.31,0.03
393.4,-0.31,0.025
393.4,-0.31,0.03
393.4,-0.31,0.015
393.41,-0.325,-0.005
393.41,-0.345,0.005
393.41,-0.325,0.005
393.41,-0.34,0.015
393.42,-0.34,0
393.42,-0.34,-0.02
393.42,-0.34,-0.02
393.42,-0.355,-0.015
393.43,-0.35,-0.02
393.43,-0.35,-0.02
393.43,-0.34,-0.025
393.44,-0.355,-0.04
393.44,-0.355,-0.065
393.44,-0.35,-0.05
393.44,-0.35,-0.045
393.45,-0.345,-0.045
393.45,-0.355,-0.04
393.45,-0.37,-0.06
393.46,-0.375,-0.065
393.46,-0.37,-0.06
393.46,-0.36,-0.045
393.46,-0.355,-0.04
393.47,-0.35,-0.045
393.47,-0.375,-0.075
393.47,-0.375,-0.08
393.47,-0.385,-0.085
393.48,-0.37,-0.075
393.48,-0.37,-0.065
393.48,-0.365,-0.075
393.49,-0.365,-0.08
393.49,-0.365,-0.085
393.49,-0.385,-0.09
393.49,-0.375,-0.075
393.5,-0.37,-0.075
393.5,-0.37,-0.075
393.5,-0.375,-0.085
393.51,-0.395,-0.105
393.51,-0.385,-0.11
393.51,-0.39,-0.09
393.51,-0.375,-0.095
393.52,-0.375,-0.095
393.52,-0.37,-0.1
393.52,-0.38,-0.11
393.52,-0.39,-0.105
393.53,-0.385,-0.095
393.53,-0.375,-0.1
393.53,-0.38,-0.095
393.54,-0.395,-0.11
393.54,-0.395,-0.11
393.54,-0.41,-0.11
393.54,-0.385,-0.11
393.55,-0.375,-0.085
393.55,-0.385,-0.095
393.55,-0.39,-0.1
393.56,-0.4,-0.12
393.56,-0.415,-0.105
393.56,-0.385,-0.1
393.56,-0.39,-0.095
393.57,-0.385,-0.1
393.57,-0.39,-0.11
393.57,-0.39,-0.115
393.57,-0.395,-0.125
393.58,-0.395,-0.1
393.58,-0.385,-0.11
393.58,-0.37,-0.105
393.59,-0.39,-0.12
393.59,-0.4,-0.13
393.59,-0.405,-0.115
393.59,-0.395,-0.105
393.6,-0.38,-0.105
393.6,-0.375,-0.105
393.6,-0.385,-0.11
393.61,-0.395,-0.13
393.61,-0.41,-0.12
393.61,-0.39,-0.1
393.61,-0.39,-0.1
393.62,-0.385,-0.1
393.62,-0.385,-0.11
393.62,-0.4,-0.115
393.62,-0.41,-0.12
393.63,-0.395,-0.115
393.63,-0.38,-0.105
393.63,-0.375,-0.115
393.64,-0.38,-0.115
393.64,-0.385,-0.125
393.64,-0.39,-0.115
393.64,-0.38,-0.09
393.65,-0.37,-0.065
393.65,-0.36,-0.035
393.65,-0.35,0.04
393.66,-0.355,0.25
393.66,-0.345,0.645
393.66,-0.3,0.93
393.66,-0.26,0.88
393.67,-0.185,0.62
393.67,0.01,0.415
393.67,0.335,0.335
393.67,0.6,0.31
393.68,0.6,0.285
393.68,0.355,0.255
393.68,0.13,0.22
393.69,0.03,0.19
393.69,0.02,0.135
393.69,0.035,0.08
393.69,0.055,0.01
393.7,0.055,-0.115
393.7,0.07,-0.28
393.7,0.085,-0.485
393.71,0.085,-0.71
393.71,0.105,-0.935
393.71,0.105,-1.16
393.71,0.125,-1.39
393.72,0.11,-1.63
393.72,0.09,-1.835
393.72,0.09,-2.01
393.72,0.08,-2.17
393.73,0.09,-2.3
393.73,0.11,-2.39
393.73,0.1,-2.47
393.74,0.08,-2.575
393.74,0.055,-2.675
393.74,0.045,-2.775
393.74,0.02,-2.835
393.75,-0.015,-2.89
393.75,-0.07,-2.92
393.75,-0.14,-2.945
393.76,-0.195,-2.985
393.76,-0.245,-3
393.76,-0.275,-3.005
393.76,-0.35,-3.01
393.77,-0.45,-3.02
393.77,-0.52,-3.04
393.77,-0.565,-3.05
393.77,-0.565,-3.04
393.78,-0.55,-3.03
393.78,-0.52,-3.025
393.78,-0.5,-3.01
393.79,-0.515,-3
393.79,-0.53,-2.98
393.79,-0.545,-2.91
393.79,-0.56,-2.825
393.8,-0.555,-2.73
393.8,-0.57,-2.605
393.8,-0.58,-2.49
393.81,-0.59,-2.36
393.81,-0.56,-2.18
393.81,-0.53,-1.975
393.81,-0.495,-1.77
393.82,-0.475,-1.55
393.82,-0.48,-1.36
393.82,-0.485,-1.175
393.82,-0.485,-0.96
393.83,-0.48,-0.76
393.83,-0.47,-0.55
393.83,-0.47,-0.35
393.84,-0.475,-0.195
393.84,-0.49,-0.035
393.84,-0.505,0.105
393.84,-0.51,0.25
393.85,-0.485,0.37
393.85,-0.475,0.49
393.85,-0.475,0.565
393.86,-0.49,0.625
393.86,-0.48,0.665
393.86,-0.48,0.705
393.86,-0.475,0.76
393.87,-0.46,0.81
393.87,-0.46,0.84
393.87,-0.465,0.865
393.88,-0.48,0.9
393.88,-0.48,0.93
393.88,-0.48,0.95
393.88,-0.495,0.97
393.89,-0.505,0.98
393.89,-0.52,1
393.89,-0.545,1.035
393.89,-0.53,1.055
393.9,-0.525,1.075
393.9,-0.52,1.105
393.9,-0.52,1.11
393.91,-0.54,1.12
393.91,-0.545,1.145
393.91,-0.55,1.18
393.91,-0.545,1.205
393.92,-0.545,1.225
393.92,-0.55,1.245
393.92,-0.57,1.26
393.92,-0.58,1.295
393.93,-0.58,1.33
393.93,-0.57,1.35
393.93,-0.575,1.375
393.94,-0.595,1.39
393.94,-0.585,1.405
393.94,-0.6,1.445
393.94,-0.595,1.475
393.95,-0.585,1.5
393.95,-0.585,1.535
393.95,-0.605,1.555
393.96,-0.6,1.58
393.96,-0.605,1.615
393.96,-0.605,1.645
393.96,-0.595,1.695
393.97,-0.595,1.725
393.97,-0.57,1.74
393.97,-0.58,1.755
393.97,-0.58,1.78
393.98,-0.565,1.81
393.98,-0.555,1.84
393.98,-0.54,1.84
393.99,-0.535,1.86
393.99,-0.525,1.855
393.99,-0.525,1.87
393.99,-0.51,1.885
394,-0.495,1.89
394,-0.475,1.875
394,-0.47,1.86
394.01,-0.46,1.82
394.01,-0.46,1.805
394.01,-0.445,1.8
394.01,-0.405,1.765
394.02,-0.4,1.735
394.02,-0.39,1.685
394.02,-0.38,1.635
394.02,-0.375,1.585
394.03,-0.355,1.54
394.03,-0.33,1.485
394.03,-0.32,1.445
394.04,-0.315,1.37
394.04,-0.305,1.285
394.04,-0.295,1.23
394.04,-0.295,1.18
394.05,-0.275,1.125
394.05,-0.25,1.065
394.05,-0.255,0.995
394.06,-0.265,0.92
394.06,-0.26,0.875
394.06,-0.26,0.815
394.06,-0.24,0.775
394.07,-0.24,0.705
394.07,-0.245,0.655
394.07,-0.255,0.59
394.07,-0.28,0.56
394.08,-0.26,0.515
394.08,-0.255,0.485
394.08,-0.25,0.445
394.09,-0.275,0.395
394.09,-0.29,0.36
394.09,-0.29,0.335
394.09,-0.285,0.315
394.1,-0.285,0.3
394.1,-0.28,0.27
394.1,-0.295,0.24
394.11,-0.31,0.22
394.11,-0.32,0.2
394.11,-0.31,0.205
394.11,-0.315,0.19
394.12,-0.31,0.17
394.12,-0.32,0.155
394.12,-0.335,0.135
394.12,-0.335,0.14
394.13,-0.335,0.15
394.13,-0.325,0.135
394.13,-0.33,0.135
394.14,-0.335,0.115
394.14,-0.35,0.11
394.14,-0.35,0.125
394.14,-0.345,0.115
394.15,-0.35,0.115
394.15,-0.33,0.13
394.15,-0.335,0.105
394.16,-0.345,0.095
394.16,-0.36,0.105
394.16,-0.355,0.11
394.16,-0.34,0.12
394.17,-0.33,0.105
394.17,-0.36,0.105
394.17,-0.36,0.09
394.17,-0.36,0.09
394.18,-0.345,0.105
394.18,-0.335,0.11
394.18,-0.34,0.11
394.19,-0.345,0.11
394.19,-0.355,0.095
394.19,-0.36,0.105
394.19,-0.345,0.105
394.2,-0.345,0.11
394.2,-0.345,0.11
394.2,-0.355,0.095
394.21,-0.36,0.095
394.21,-0.375,0.09
394.21,-0.365,0.11
394.21,-0.355,0.105
394.22,-0.35,0.1
394.22,-0.36,0.095
394.22,-0.365,0.09
394.22,-0.37,0.09
394.23,-0.375,0.1
394.23,-0.36,0.11
394.23,-0.36,0.1
394.24,-0.365,0.07
394.24,-0.365,0.065
394.24,-0.38,0.065
394.24,-0.385,0.07
394.25,-0.36,0.07
394.25,-0.36,0.055
394.25,-0.38,0.055
394.26,-0.38,0.035
394.26,-0.39,0.045
394.26,-0.385,0.035
394.26,-0.38,0.035
394.27,-0.37,0.045
394.27,-0.38,0.025
394.27,-0.39,0.01
394.27,-0.395,0.005
394.28,-0.385,0.02
394.28,-0.385,0.015
394.28,-0.385,0.01
394.29,-0.395,0
394.29,-0.4,-0.02
394.29,-0.405,-0.01
394.29,-0.395,-0.01
394.3,-0.395,-0.005
394.3,-0.385,-0.02
394.3,-0.39,-0.03
394.31,-0.405,-0.045
394.31,-0.41,-0.03
394.31,-0.4,-0.035
394.31,-0.4,-0.03
394.32,-0.4,-0.035
394.32,-0.4,-0.05
394.32,-0.4,-0.06
394.32,-0.41,-0.05
394.33,-0.405,-0.04
394.33,-0.405,-0.035
394.33,-0.4,-0.045
394.34,-0.405,-0.05
394.34,-0.42,-0.07
394.34,-0.415,-0.065
394.34,-0.415,-0.065
394.35,-0.395,-0.065
394.35,-0.4,-0.06
394.35,-0.405,-0.07
394.36,-0.415,-0.08
394.36,-0.42,-0.07
394.36,-0.42,-0.075
394.36,-0.41,-0.07
394.37,-0.42,-0.07
394.37,-0.425,-0.08
394.37,-0.42,-0.085
394.38,-0.425,-0.095
394.38,-0.405,-0.075
394.38,-0.405,-0.08
394.38,-0.405,-0.08
394.39,-0.415,-0.095
394.39,-0.43,-0.1
394.39,-0.425,-0.095
394.39,-0.41,-0.085
394.4,-0.41,-0.09
394.4,-0.405,-0.08
394.4,-0.415,-0.105
394.41,-0.425,-0.105
394.41,-0.435,-0.105
394.41,-0.415,-0.085
394.41,-0.41,-0.08
394.42,-0.41,-0.085
394.42,-0.41,-0.09
394.42,-0.415,-0.105
394.42,-0.435,-0.095
394.43,-0.425,-0.09
394.43,-0.41,-0.08
394.43,-0.415,-0.09
394.44,-0.41,-0.095
394.44,-0.43,-0.115
394.44,-0.425,-0.105
394.44,-0.42,-0.095
394.45,-0.41,-0.095
394.45,-0.41,-0.09
394.45,-0.4,-0.1
394.46,-0.42,-0.11
394.46,-0.43,-0.115
394.46,-0.42,-0.1
394.46,-0.405,-0.105
394.47,-0.4,-0.1
394.47,-0.405,-0.11
394.47,-0.425,-0.125
394.47,-0.43,-0.11
394.48,-0.42,-0.11
394.48,-0.41,-0.1
394.48,-0.4,-0.11
394.49,-0.405,-0.12
394.49,-0.41,-0.12
394.49,-0.425,-0.12
394.49,-0.405,-0.105
394.5,-0.405,-0.105
394.5,-0.39,-0.1
394.5,-0.395,-0.11
394.51,-0.395,-0.115
394.51,-0.395,-0.11
394.51,-0.385,-0.09
394.51,-0.375,-0.075
394.52,-0.365,-0.07
394.52,-0.365,-0.04
394.52,-0.365,0.06
394.52,-0.34,0.34
394.53,-0.3,0.7
394.53,-0.27,0.835
394.53,-0.205,0.665
394.54,-0.065,0.445
394.54,0.23,0.33
394.54,0.55,0.29
394.54,0.665,0.275
394.55,0.465,0.235
394.55,0.21,0.205
394.55,0.055,0.155
394.56,0.02,0.12
394.56,0.04,0.08
394.56,0.045,0.005
394.56,0.06,-0.1
394.57,0.065,-0.265
394.57,0.07,-0.46
394.57,0.075,-0.67
394.57,0.08,-0.885
394.58,0.105,-1.085
394.58,0.11,-1.305
394.58,0.115,-1.555
394.59,0.1,-1.78
394.59,0.085,-1.97
394.59,0.085,-2.125
394.59,0.09,-2.26
394.6,0.105,-2.39
394.6,0.105,-2.47
394.6,0.1,-2.565
394.61,0.075,-2.64
394.61,0.05,-2.755
394.61,0.06,-2.84
394.61,0.035,-2.885
394.62,-0.01,-2.93
394.62,-0.095,-2.975
394.62,-0.16,-2.99
394.62,-0.205,-3.005
394.63,-0.245,-3.015
394.63,-0.29,-3.015
394.63,-0.385,-3.04
394.64,-0.46,-3.04
394.64,-0.5,-3.05
394.64,-0.505,-3.045
394.64,-0.47,-3.03
394.65,-0.44,-3.03
394.65,-0.43,-3.015
394.65,-0.44,-3.005
394.66,-0.45,-2.985
394.66,-0.48,-2.93
394.66,-0.495,-2.87
394.66,-0.505,-2.775
394.67,-0.52,-2.66
394.67,-0.54,-2.555
394.67,-0.53,-2.415
394.67,-0.53,-2.215
394.68,-0.515,-1.99
394.68,-0.485,-1.755
394.68,-0.49,-1.51
394.69,-0.495,-1.285
394.69,-0.495,-1.07
394.69,-0.505,-0.835
394.69,-0.5,-0.6
394.7,-0.485,-0.385
394.7,-0.49,-0.2
394.7,-0.5,-0.03
394.71,-0.535,0.115
394.71,-0.545,0.265
394.71,-0.535,0.41
394.71,-0.52,0.55
394.72,-0.5,0.655
394.72,-0.49,0.735
394.72,-0.51,0.78
394.72,-0.515,0.84
394.73,-0.505,0.89
394.73,-0.49,0.93
394.73,-0.49,0.96
394.74,-0.5,0.985
394.74,-0.5,1.015
394.74,-0.495,1.04
394.74,-0.47,1.07
394.75,-0.455,1.11
394.75,-0.455,1.125
394.75,-0.465,1.125
394.76,-0.475,1.13
394.76,-0.49,1.16
394.76,-0.475,1.185
394.76,-0.46,1.2
394.77,-0.46,1.225
394.77,-0.45,1.225
394.77,-0.455,1.225
394.77,-0.465,1.255
394.78,-0.455,1.29
394.78,-0.445,1.305
394.78,-0.455,1.33
394.79,-0.455,1.355
394.79,-0.47,1.36
394.79,-0.48,1.41
394.79,-0.48,1.44
394.8,-0.475,1.48
394.8,-0.465,1.525
394.8,-0.48,1.55
394.81,-0.495,1.565
394.81,-0.51,1.595
394.81,-0.525,1.64
394.81,-0.52,1.68
394.82,-0.54,1.71
394.82,-0.545,1.74
394.82,-0.545,1.745
394.82,-0.55,1.79
394.83,-0.545,1.825
394.83,-0.54,1.855
394.83,-0.525,1.86
394.84,-0.53,1.885
394.84,-0.535,1.875
394.84,-0.535,1.9
394.84,-0.525,1.925
394.85,-0.51,1.945
394.85,-0.495,1.935
394.85,-0.49,1.935
394.86,-0.49,1.915
394.86,-0.5,1.91
394.86,-0.48,1.92
394.86,-0.465,1.895
394.87,-0.445,1.865
394.87,-0.45,1.82
394.87,-0.435,1.8
394.88,-0.42,1.765
394.88,-0.405,1.725
394.88,-0.4,1.685
394.88,-0.385,1.635
394.89,-0.38,1.565
394.89,-0.375,1.5
394.89,-0.355,1.45
394.89,-0.335,1.385
394.9,-0.32,1.33
394.9,-0.295,1.265
394.9,-0.3,1.185
394.91,-0.3,1.105
394.91,-0.295,1.045
394.91,-0.285,0.99
394.91,-0.28,0.92
394.92,-0.27,0.855
394.92,-0.27,0.785
394.92,-0.275,0.705
394.92,-0.285,0.67
394.93,-0.275,0.62
394.93,-0.28,0.57
394.93,-0.275,0.515
394.94,-0.285,0.465
394.94,-0.29,0.42
394.94,-0.29,0.385
394.94,-0.295,0.355
394.95,-0.29,0.32
394.95,-0.295,0.3
394.95,-0.295,0.27
394.96,-0.3,0.23
394.96,-0.325,0.23
394.96,-0.32,0.215
394.96,-0.31,0.205
394.97,-0.32,0.18
394.97,-0.315,0.16
394.97,-0.315,0.135
394.97,-0.325,0.135
394.98,-0.32,0.135
394.98,-0.34,0.13
394.98,-0.335,0.125
394.99,-0.34,0.12
394.99,-0.355,0.1
394.99,-0.355,0.1
394.99,-0.35,0.11
395,-0.35,0.095
395,-0.34,0.1
395,-0.35,0.085
395.01,-0.355,0.075
395.01,-0.36,0.085
395.01,-0.365,0.085
395.01,-0.355,0.105
395.02,-0.345,0.095
395.02,-0.36,0.085
395.02,-0.355,0.07
395.02,-0.36,0.07
395.03,-0.36,0.085
395.03,-0.35,0.1
395.03,-0.365,0.085
395.04,-0.355,0.08
395.04,-0.37,0.075
395.04,-0.38,0.07
395.04,-0.38,0.085
395.05,-0.365,0.105
395.05,-0.365,0.095
395.05,-0.365,0.085
395.06,-0.38,0.075
395.06,-0.375,0.085
395.06,-0.365,0.095
395.06,-0.365,0.09
395.07,-0.36,0.1
395.07,-0.365,0.08
395.07,-0.37,0.065
395.07,-0.385,0.065
395.08,-0.375,0.075
395.08,-0.375,0.075
395.08,-0.375,0.075
395.09,-0.385,0.06
395.09,-0.405,0.055
395.09,-0.41,0.04
395.09,-0.395,0.05
395.1,-0.39,0.05
395.1,-0.39,0.045
395.1,-0.38,0.04
395.11,-0.365,0.03
395.11,-0.375,0.015
395.11,-0.38,0.025
395.11,-0.385,0.025
395.12,-0.4,0.02
395.12,-0.4,0.005
395.12,-0.415,-0.015
395.12,-0.415,-0.005
395.13,-0.41,0.005
395.13,-0.395,-0.005
395.13,-0.39,-0.01
395.14,-0.425,-0.02
395.14,-0.43,-0.03
395.14,-0.435,-0.035
395.14,-0.4,-0.04
395.15,-0.375,-0.03
395.15,-0.365,-0.02
395.15,-0.37,-0.04
395.16,-0.385,-0.06
395.16,-0.395,-0.05
395.16,-0.4,-0.05
395.16,-0.38,-0.055
395.17,-0.38,-0.06
395.17,-0.38,-0.055
395.17,-0.38,-0.09
395.17,-0.39,-0.075
395.18,-0.395,-0.065
395.18,-0.375,-0.065
395.18,-0.38,-0.07
395.19,-0.385,-0.085
395.19,-0.39,-0.09
395.19,-0.385,-0.105
395.19,-0.385,-0.09
395.2,-0.39,-0.075
395.2,-0.385,-0.1
395.2,-0.405,-0.09
395.21,-0.4,-0.1
395.21,-0.4,-0.095
395.21,-0.39,-0.1
395.21,-0.405,-0.09
395.22,-0.395,-0.09
395.22,-0.405,-0.105
395.22,-0.4,-0.115
395.22,-0.41,-0.125
395.23,-0.39,-0.105
395.23,-0.39,-0.105
395.23,-0.395,-0.11
395.24,-0.405,-0.115
395.24,-0.405,-0.13
395.24,-0.42,-0.115
395.24,-0.395,-0.11
395.25,-0.385,-0.11
395.25,-0.385,-0.11
395.25,-0.385,-0.125
395.26,-0.39,-0.12
395.26,-0.385,-0.115
395.26,-0.375,-0.12
395.26,-0.37,-0.105
395.27,-0.365,-0.12
395.27,-0.38,-0.125
395.27,-0.38,-0.145
395.27,-0.39,-0.135
395.28,-0.385,-0.12
395.28,-0.4,-0.11
395.28,-0.4,-0.13
395.29,-0.4,-0.13
395.29,-0.4,-0.145
395.29,-0.4,-0.135
395.29,-0.395,-0.13
395.3,-0.385,-0.115
395.3,-0.38,-0.125
395.3,-0.375,-0.135
395.31,-0.39,-0.14
395.31,-0.39,-0.135
395.31,-0.37,-0.125
395.31,-0.37,-0.115
395.32,-0.385,-0.125
395.32,-0.395,-0.13
395.32,-0.4,-0.14
395.32,-0.405,-0.14
395.33,-0.39,-0.135
395.33,-0.375,-0.115
395.33,-0.365,-0.125
395.34,-0.37,-0.125
395.34,-0.37,-0.14
395.34,-0.365,-0.125
395.34,-0.35,-0.1
395.35,-0.33,-0.095
395.35,-0.325,-0.065
395.35,-0.325,0.01
395.36,-0.34,0.25
395.36,-0.3,0.655
395.36,-0.26,0.84
395.36,-0.185,0.7
395.37,-0.04,0.46
395.37,0.26,0.305
395.37,0.6,0.255
395.38,0.71,0.21
395.38,0.525,0.165
395.38,0.25,0.105
395.38,0.085,0.03
395.39,0.055,-0.07
395.39,0.06,-0.21
395.39,0.065,-0.35
395.39,0.085,-0.48
395.4,0.075,-0.65
395.4,0.075,-0.865
395.4,0.065,-1.075
395.41,0.075,-1.265
395.41,0.075,-1.415
395.41,0.09,-1.555
395.41,0.105,-1.67
395.42,0.085,-1.81
395.42,0.06,-2
395.42,0.05,-2.225
395.42,0.03,-2.405
395.43,0.02,-2.535
395.43,-0.015,-2.61
395.43,-0.035,-2.705
395.44,-0.07,-2.805
395.44,-0.115,-2.895
395.44,-0.16,-2.945
395.44,-0.23,-2.98
395.45,-0.285,-2.99
395.45,-0.345,-3.015
395.45,-0.405,-3.04
395.46,-0.495,-3.065
395.46,-0.605,-3.065
395.46,-0.685,-3.055
395.46,-0.725,-3.07
395.47,-0.73,-3.06
395.47,-0.685,-3.055
395.47,-0.64,-3.065
395.47,-0.625,-3.035
395.48,-0.605,-3
395.48,-0.585,-2.915
395.48,-0.57,-2.84
395.49,-0.555,-2.745
395.49,-0.565,-2.605
395.49,-0.56,-2.435
395.49,-0.55,-2.23
395.5,-0.53,-2.02
395.5,-0.49,-1.78
395.5,-0.455,-1.54
395.51,-0.435,-1.305
395.51,-0.425,-1.07
395.51,-0.415,-0.845
395.51,-0.415,-0.655
395.52,-0.405,-0.465
395.52,-0.4,-0.295
395.52,-0.415,-0.125
395.52,-0.42,0.05
395.53,-0.41,0.2
395.53,-0.4,0.345
395.53,-0.395,0.47
395.54,-0.37,0.545
395.54,-0.375,0.6
395.54,-0.385,0.655
395.54,-0.385,0.72
395.55,-0.365,0.75
395.55,-0.345,0.775
395.55,-0.32,0.8
395.56,-0.325,0.825
395.56,-0.345,0.855
395.56,-0.345,0.905
395.56,-0.35,0.92
395.57,-0.35,0.945
395.57,-0.35,0.96
395.57,-0.345,0.98
395.57,-0.32,1
395.58,-0.305,1.035
395.58,-0.31,1.065
395.58,-0.305,1.085
395.59,-0.32,1.095
395.59,-0.345,1.115
395.59,-0.345,1.15
395.59,-0.325,1.19
395.6,-0.31,1.235
395.6,-0.29,1.25
395.6,-0.29,1.275
395.61,-0.295,1.3
395.61,-0.3,1.33
395.61,-0.3,1.345
395.61,-0.285,1.37
395.62,-0.27,1.395
395.62,-0.25,1.405
395.62,-0.265,1.425
395.62,-0.275,1.46
395.63,-0.275,1.48
395.63,-0.26,1.52
395.63,-0.25,1.53
395.64,-0.24,1.55
395.64,-0.24,1.555
395.64,-0.23,1.58
395.64,-0.23,1.595
395.65,-0.225,1.615
395.65,-0.22,1.65
395.65,-0.225,1.65
395.66,-0.235,1.655
395.66,-0.23,1.69
395.66,-0.215,1.715
395.66,-0.21,1.74
395.67,-0.2,1.75
395.67,-0.175,1.74
395.67,-0.19,1.72
395.67,-0.22,1.715
395.68,-0.225,1.715
395.68,-0.21,1.695
395.68,-0.2,1.665
395.69,-0.165,1.625
395.69,-0.14,1.59
395.69,-0.14,1.55
395.69,-0.145,1.52
395.7,-0.15,1.49
395.7,-0.15,1.425
395.7,-0.145,1.375
395.71,-0.14,1.3
395.71,-0.135,1.235
395.71,-0.13,1.18
395.71,-0.13,1.14
395.72,-0.15,1.08
395.72,-0.155,1
395.72,-0.16,0.94
395.72,-0.145,0.885
395.73,-0.115,0.835
395.73,-0.095,0.775
395.73,-0.11,0.72
395.74,-0.14,0.66
395.74,-0.16,0.595
395.74,-0.17,0.545
395.74,-0.155,0.495
395.75,-0.15,0.47
395.75,-0.14,0.425
395.75,-0.15,0.39
395.76,-0.18,0.34
395.76,-0.175,0.305
395.76,-0.18,0.275
395.76,-0.19,0.255
395.77,-0.195,0.235
395.77,-0.2,0.195
395.77,-0.2,0.175
395.77,-0.21,0.155
395.78,-0.205,0.145
395.78,-0.205,0.135
395.78,-0.2,0.12
395.79,-0.21,0.105
395.79,-0.23,0.08
395.79,-0.235,0.08
395.79,-0.23,0.085
395.8,-0.225,0.085
395.8,-0.24,0.075
395.8,-0.255,0.075
395.81,-0.265,0.06
395.81,-0.265,0.065
395.81,-0.25,0.07
395.81,-0.24,0.08
395.82,-0.25,0.08
395.82,-0.245,0.055
395.82,-0.265,0.055
395.82,-0.265,0.055
395.83,-0.255,0.085
395.83,-0.25,0.075
395.83,-0.25,0.07
395.84,-0.26,0.08
395.84,-0.275,0.055
395.84,-0.26,0.07
395.84,-0.245,0.085
395.85,-0.25,0.085
395.85,-0.24,0.09
395.85,-0.245,0.09
395.86,-0.255,0.07
395.86,-0.28,0.07
395.86,-0.275,0.075
395.86,-0.265,0.08
395.87,-0.27,0.075
395.87,-0.275,0.085
395.87,-0.295,0.07
395.88,-0.305,0.075
395.88,-0.295,0.085
395.88,-0.285,0.095
395.88,-0.28,0.075
395.89,-0.29,0.07
395.89,-0.295,0.055
395.89,-0.295,0.065
395.89,-0.3,0.065
395.9,-0.295,0.07
395.9,-0.285,0.075
395.9,-0.295,0.06
395.91,-0.305,0.055
395.91,-0.31,0.04
395.91,-0.295,0.055
395.91,-0.295,0.05
395.92,-0.295,0.03
395.92,-0.285,0.015
395.92,-0.295,0.01
395.92,-0.305,0.03
395.93,-0.32,0.02
395.93,-0.325,0.02
395.93,-0.335,0.01
395.94,-0.33,0.005
395.94,-0.33,-0.015
395.94,-0.325,-0.01
395.94,-0.31,0.01
395.95,-0.31,0
395.95,-0.315,-0.005
395.95,-0.32,-0.025
395.96,-0.33,-0.045
395.96,-0.33,-0.035
395.96,-0.33,-0.02
395.96,-0.325,-0.015
395.97,-0.32,-0.03
395.97,-0.335,-0.04
395.97,-0.33,-0.045
395.97,-0.34,-0.05
395.98,-0.345,-0.04
395.98,-0.335,-0.035
395.98,-0.345,-0.035
395.99,-0.35,-0.06
395.99,-0.34,-0.065
395.99,-0.35,-0.06
395.99,-0.355,-0.055
396,-0.35,-0.055
396,-0.345,-0.06
396,-0.345,-0.065
396.01,-0.35,-0.08
396.01,-0.355,-0.075
396.01,-0.355,-0.07
396.01,-0.345,-0.07
396.02,-0.34,-0.08
396.02,-0.335,-0.09
396.02,-0.35,-0.095
396.02,-0.35,-0.095
396.03,-0.345,-0.07
396.03,-0.345,-0.085
396.03,-0.35,-0.07
396.04,-0.35,-0.095
396.04,-0.355,-0.095
396.04,-0.375,-0.09
396.04,-0.355,-0.08
396.05,-0.34,-0.07
396.05,-0.355,-0.085
396.05,-0.35,-0.095
396.06,-0.355,-0.095
396.06,-0.355,-0.095
396.06,-0.355,-0.08
396.06,-0.345,-0.085
396.07,-0.34,-0.09
396.07,-0.35,-0.09
396.07,-0.365,-0.105
396.07,-0.365,-0.11
396.08,-0.365,-0.1
396.08,-0.35,-0.09
396.08,-0.35,-0.09
396.09,-0.355,-0.1
396.09,-0.37,-0.095
396.09,-0.365,-0.105
396.09,-0.36,-0.09
396.1,-0.345,-0.105
396.1,-0.355,-0.09
396.1,-0.37,-0.1
396.11,-0.37,-0.105
396.11,-0.385,-0.105
396.11,-0.37,-0.105
396.11,-0.365,-0.095
396.12,-0.355,-0.1
396.12,-0.36,-0.115
396.12,-0.365,-0.115
396.12,-0.375,-0.105
396.13,-0.35,-0.095
396.13,-0.345,-0.08
396.13,-0.345,-0.095
396.14,-0.35,-0.095
396.14,-0.365,-0.105
396.14,-0.36,-0.095
396.14,-0.345,-0.08
396.15,-0.33,-0.055
396.15,-0.33,0.01
396.15,-0.315,0.135
396.16,-0.31,0.49
396.16,-0.265,0.865
396.16,-0.205,0.845
396.16,-0.09,0.585
396.17,0.21,0.395
396.17,0.595,0.32
396.17,0.755,0.29
396.17,0.545,0.26
396.18,0.225,0.235
396.18,0.065,0.205
396.18,0.055,0.15
396.19,0.08,0.055
396.19,0.1,-0.07
396.19,0.115,-0.235
396.19,0.13,-0.425
396.2,0.15,-0.65
396.2,0.17,-0.88
396.2,0.165,-1.135
396.21,0.175,-1.415
396.21,0.16,-1.655
396.21,0.165,-1.85
396.21,0.16,-2.025
396.22,0.17,-2.2
396.22,0.17,-2.345
396.22,0.145,-2.465
396.22,0.135,-2.56
396.23,0.125,-2.65
396.23,0.12,-2.745
396.23,0.085,-2.845
396.24,0.055,-2.92
396.24,-0.035,-2.96
396.24,-0.11,-2.975
396.24,-0.15,-2.98
396.25,-0.195,-2.995
396.25,-0.245,-3.01
396.25,-0.35,-3.03
396.26,-0.45,-3.045
396.26,-0.535,-3.055
396.26,-0.57,-3.035
396.26,-0.545,-3.03
396.27,-0.52,-3.015
396.27,-0.5,-3.025
396.27,-0.495,-3.02
396.27,-0.505,-2.99
396.28,-0.53,-2.93
396.28,-0.54,-2.855
396.28,-0.55,-2.75
396.29,-0.565,-2.65
396.29,-0.555,-2.515
396.29,-0.555,-2.355
396.29,-0.525,-2.145
396.3,-0.495,-1.905
396.3,-0.49,-1.655
396.3,-0.475,-1.435
396.31,-0.495,-1.22
396.31,-0.485,-0.965
396.31,-0.48,-0.715
396.31,-0.475,-0.485
396.32,-0.485,-0.28
396.32,-0.49,-0.13
396.32,-0.51,0.02
396.32,-0.51,0.2
396.33,-0.515,0.355
396.33,-0.505,0.49
396.33,-0.495,0.585
396.34,-0.49,0.66
396.34,-0.5,0.715
396.34,-0.48,0.77
396.34,-0.475,0.815
396.35,-0.46,0.855
396.35,-0.455,0.9
396.35,-0.46,0.92
396.36,-0.46,0.96
396.36,-0.465,0.995
396.36,-0.45,1.035
396.36,-0.435,1.055
396.37,-0.43,1.095
396.37,-0.44,1.12
396.37,-0.445,1.135
396.38,-0.45,1.16
396.38,-0.445,1.22
396.38,-0.425,1.24
396.38,-0.43,1.265
396.39,-0.44,1.285
396.39,-0.445,1.3
396.39,-0.45,1.325
396.39,-0.445,1.35
396.4,-0.43,1.375
396.4,-0.435,1.395
396.4,-0.43,1.41
396.41,-0.425,1.43
396.41,-0.43,1.465
396.41,-0.425,1.49
396.41,-0.415,1.525
396.42,-0.41,1.535
396.42,-0.415,1.555
396.42,-0.41,1.575
396.42,-0.44,1.595
396.43,-0.43,1.645
396.43,-0.435,1.65
396.43,-0.425,1.68
396.44,-0.43,1.69
396.44,-0.42,1.71
396.44,-0.445,1.755
396.44,-0.425,1.8
396.45,-0.415,1.835
396.45,-0.425,1.855
396.45,-0.425,1.88
396.46,-0.43,1.87
396.46,-0.44,1.905
396.46,-0.45,1.92
396.46,-0.43,1.935
396.47,-0.435,1.94
396.47,-0.42,1.94
396.47,-0.42,1.93
396.47,-0.415,1.93
396.48,-0.41,1.93
396.48,-0.395,1.915
396.48,-0.38,1.89
396.49,-0.375,1.855
396.49,-0.385,1.815
396.49,-0.365,1.79
396.49,-0.345,1.77
396.5,-0.345,1.72
396.5,-0.33,1.665
396.5,-0.325,1.595
396.51,-0.31,1.53
396.51,-0.31,1.48
396.51,-0.29,1.43
396.51,-0.27,1.37
396.52,-0.265,1.295
396.52,-0.265,1.235
396.52,-0.255,1.17
396.52,-0.27,1.11
396.53,-0.25,1.06
396.53,-0.25,0.995
396.53,-0.24,0.92
396.54,-0.23,0.86
396.54,-0.235,0.785
396.54,-0.235,0.735
396.54,-0.23,0.69
396.55,-0.225,0.635
396.55,-0.225,0.58
396.55,-0.23,0.535
396.56,-0.245,0.475
396.56,-0.25,0.45
396.56,-0.25,0.405
396.56,-0.25,0.38
396.57,-0.255,0.35
396.57,-0.26,0.31
396.57,-0.27,0.275
396.57,-0.275,0.255
396.58,-0.27,0.24
396.58,-0.285,0.24
396.58,-0.285,0.21
396.59,-0.275,0.185
396.59,-0.285,0.16
396.59,-0.3,0.155
396.59,-0.3,0.16
396.6,-0.29,0.15
396.6,-0.29,0.145
396.6,-0.295,0.13
396.61,-0.32,0.12
396.61,-0.31,0.12
396.61,-0.31,0.13
396.61,-0.305,0.125
396.62,-0.305,0.115
396.62,-0.31,0.115
396.62,-0.32,0.1
396.62,-0.325,0.1
396.63,-0.32,0.12
396.63,-0.315,0.12
396.63,-0.315,0.12
396.64,-0.325,0.11
396.64,-0.335,0.105
396.64,-0.33,0.115
396.64,-0.325,0.115
396.65,-0.315,0.115
396.65,-0.325,0.125
396.65,-0.325,0.11
396.66,-0.335,0.105
396.66,-0.34,0.1
396.66,-0.335,0.115
396.66,-0.315,0.125
396.67,-0.34,0.13
396.67,-0.335,0.12
396.67,-0.35,0.12
396.67,-0.335,0.125
396.68,-0.335,0.13
396.68,-0.325,0.135
396.68,-0.33,0.125
396.69,-0.345,0.125
396.69,-0.35,0.11
396.69,-0.35,0.11
396.69,-0.345,0.115
396.7,-0.32,0.125
396.7,-0.33,0.115
396.7,-0.345,0.11
396.71,-0.355,0.095
396.71,-0.355,0.085
396.71,-0.36,0.105
396.71,-0.34,0.095
396.72,-0.34,0.09
396.72,-0.35,0.085
396.72,-0.355,0.075
396.72,-0.36,0.075
396.73,-0.35,0.08
396.73,-0.35,0.075
396.73,-0.35,0.075
396.74,-0.365,0.06
396.74,-0.37,0.04
396.74,-0.37,0.04
396.74,-0.36,0.05
396.75,-0.355,0.05
396.75,-0.37,0.04
396.75,-0.38,0.02
396.76,-0.375,0.005
396.76,-0.385,0.005
396.76,-0.375,0.01
396.76,-0.365,0.02
396.77,-0.385,0.01
396.77,-0.39,-0.005
396.77,-0.395,-0.015
396.77,-0.39,-0.015
396.78,-0.39,-0.01
396.78,-0.38,-0.01
396.78,-0.37,-0.005
396.79,-0.38,-0.02
396.79,-0.38,-0.04
396.79,-0.395,-0.015
396.79,-0.375,-0.03
396.8,-0.375,-0.03
396.8,-0.375,-0.035
396.8,-0.38,-0.045
396.81,-0.395,-0.05
396.81,-0.395,-0.05
396.81,-0.385,-0.045
396.81,-0.385,-0.04
396.82,-0.38,-0.05
396.82,-0.39,-0.05
396.82,-0.395,-0.06
396.82,-0.395,-0.07
396.83,-0.385,-0.06
396.83,-0.38,-0.055
396.83,-0.38,-0.065
396.84,-0.38,-0.07
396.84,-0.395,-0.08
396.84,-0.395,-0.08
396.84,-0.375,-0.065
396.85,-0.37,-0.07
396.85,-0.385,-0.08
396.85,-0.395,-0.085
396.86,-0.385,-0.08
396.86,-0.38,-0.085
396.86,-0.38,-0.08
396.86,-0.39,-0.07
396.87,-0.38,-0.075
396.87,-0.385,-0.09
396.87,-0.385,-0.09
396.88,-0.39,-0.085
396.88,-0.385,-0.08
396.88,-0.39,-0.08
396.88,-0.37,-0.085
396.89,-0.38,-0.095
396.89,-0.385,-0.095
396.89,-0.385,-0.09
396.89,-0.38,-0.085
396.9,-0.375,-0.08
396.9,-0.375,-0.08
396.9,-0.385,-0.1
396.91,-0.39,-0.105
396.91,-0.385,-0.1
396.91,-0.39,-0.085
396.91,-0.375,-0.09
396.92,-0.375,-0.085
396.92,-0.38,-0.105
396.92,-0.385,-0.115
396.92,-0.385,-0.11
396.93,-0.37,-0.095
396.93,-0.365,-0.085
396.93,-0.37,-0.1
396.94,-0.37,-0.11
396.94,-0.375,-0.115
396.94,-0.38,-0.105
396.94,-0.36,-0.105
396.95,-0.355,-0.09
396.95,-0.36,-0.095
396.95,-0.35,-0.1
396.96,-0.365,-0.105
396.96,-0.36,-0.105
396.96,-0.355,-0.09
396.96,-0.345,-0.085
396.97,-0.335,-0.07
396.97,-0.34,-0.065
396.97,-0.35,-0.06
396.97,-0.345,-0.005
396.98,-0.315,0.18
396.98,-0.295,0.54
396.98,-0.255,0.84
396.99,-0.205,0.78
396.99,-0.105,0.53
396.99,0.165,0.37
396.99,0.555,0.32
397,0.765,0.28
397,0.65,0.23
397,0.34,0.155
397.01,0.12,0.09
397.01,0.065,-0.005
397.01,0.07,-0.1
397.01,0.075,-0.23
397.02,0.075,-0.37
397.02,0.06,-0.56
397.02,0.065,-0.75
397.02,0.06,-0.96
397.03,0.08,-1.12
397.03,0.1,-1.265
397.03,0.105,-1.41
397.04,0.085,-1.555
397.04,0.07,-1.695
397.04,0.045,-1.85
397.04,0.065,-2.035
397.05,0.085,-2.24
397.05,0.07,-2.395
397.05,0.05,-2.525
397.06,0.015,-2.625
397.06,-0.015,-2.71
397.06,-0.025,-2.775
397.06,-0.06,-2.86
397.07,-0.095,-2.915
397.07,-0.16,-2.95
397.07,-0.235,-2.98
397.07,-0.28,-2.985
397.08,-0.32,-3.005
397.08,-0.37,-3.005
397.08,-0.47,-3.02
397.09,-0.55,-3.03
397.09,-0.625,-3.05
397.09,-0.645,-3.045
397.09,-0.605,-3.01
397.1,-0.555,-3.01
397.1,-0.505,-3
397.1,-0.485,-2.975
397.11,-0.49,-2.93
397.11,-0.495,-2.865
397.11,-0.49,-2.775
397.11,-0.49,-2.645
397.12,-0.49,-2.495
397.12,-0.49,-2.335
397.12,-0.49,-2.135
397.12,-0.465,-1.895
397.13,-0.43,-1.64
397.13,-0.38,-1.375
397.13,-0.365,-1.115
397.14,-0.365,-0.895
397.14,-0.4,-0.705
397.14,-0.425,-0.495
397.14,-0.42,-0.28
397.15,-0.41,-0.095
397.15,-0.43,0.07
397.15,-0.43,0.225
397.16,-0.43,0.37
397.16,-0.42,0.515
397.16,-0.41,0.615
397.16,-0.395,0.695
397.17,-0.39,0.755
397.17,-0.4,0.785
397.17,-0.405,0.815
397.17,-0.41,0.86
397.18,-0.4,0.9
397.18,-0.375,0.93
397.18,-0.38,0.955
397.19,-0.39,0.98
397.19,-0.39,1.005
397.19,-0.395,1.025
397.19,-0.39,1.06
397.2,-0.395,1.085
397.2,-0.395,1.105
397.2,-0.405,1.115
397.21,-0.41,1.125
397.21,-0.41,1.16
397.21,-0.395,1.2
397.21,-0.385,1.215
397.22,-0.39,1.235
397.22,-0.38,1.255
397.22,-0.405,1.275
397.22,-0.405,1.295
397.23,-0.39,1.34
397.23,-0.38,1.37
397.23,-0.39,1.4
397.24,-0.395,1.405
397.24,-0.405,1.43
397.24,-0.405,1.47
397.24,-0.4,1.51
397.25,-0.385,1.555
397.25,-0.39,1.57
397.25,-0.395,1.595
397.26,-0.395,1.615
397.26,-0.39,1.65
397.26,-0.38,1.695
397.26,-0.365,1.745
397.27,-0.365,1.765
397.27,-0.37,1.775
397.27,-0.375,1.795
397.27,-0.375,1.82
397.28,-0.365,1.845
397.28,-0.355,1.875
397.28,-0.345,1.88
397.29,-0.345,1.89
397.29,-0.34,1.88
397.29,-0.325,1.91
397.29,-0.32,1.915
397.3,-0.31,1.92
397.3,-0.31,1.9
397.3,-0.3,1.87
397.31,-0.295,1.85
397.31,-0.285,1.84
397.31,-0.28,1.815
397.31,-0.26,1.775
397.32,-0.255,1.73
397.32,-0.255,1.67
397.32,-0.24,1.62
397.32,-0.245,1.57
397.33,-0.23,1.515
397.33,-0.225,1.47
397.33,-0.205,1.4
397.34,-0.215,1.325
397.34,-0.21,1.24
397.34,-0.215,1.185
397.34,-0.2,1.12
397.35,-0.19,1.06
397.35,-0.195,1.005
397.35,-0.195,0.91
397.36,-0.2,0.845
397.36,-0.205,0.785
397.36,-0.205,0.74
397.36,-0.195,0.675
397.37,-0.195,0.63
397.37,-0.2,0.56
397.37,-0.21,0.5
397.38,-0.225,0.455
397.38,-0.22,0.435
397.38,-0.22,0.4
397.38,-0.23,0.37
397.39,-0.235,0.33
397.39,-0.245,0.305
397.39,-0.25,0.29
397.39,-0.245,0.28
397.4,-0.25,0.275
397.4,-0.25,0.245
397.4,-0.265,0.23
397.41,-0.275,0.215
397.41,-0.29,0.21
397.41,-0.275,0.215
397.41,-0.275,0.21
397.42,-0.27,0.195
397.42,-0.29,0.185
397.42,-0.295,0.175
397.42,-0.295,0.165
397.43,-0.28,0.165
397.43,-0.265,0.175
397.43,-0.265,0.17
397.44,-0.275,0.14
397.44,-0.3,0.125
397.44,-0.3,0.115
397.44,-0.28,0.115
397.45,-0.285,0.115
397.45,-0.28,0.1
397.45,-0.275,0.08
397.46,-0.28,0.05
397.46,-0.28,0.065
397.46,-0.275,0.08
397.46,-0.265,0.065
397.47,-0.285,0.065
397.47,-0.285,0.055
397.47,-0.305,0.035
397.47,-0.29,0.045
397.48,-0.29,0.07
397.48,-0.295,0.08
397.48,-0.29,0.085
397.49,-0.295,0.075
397.49,-0.32,0.065
397.49,-0.325,0.065
397.49,-0.33,0.07
397.5,-0.34,0.075
397.5,-0.345,0.07
397.5,-0.355,0.065
397.51,-0.35,0.04
397.51,-0.355,0.06
397.51,-0.345,0.075
397.51,-0.335,0.06
397.52,-0.335,0.06
397.52,-0.345,0.05
397.52,-0.35,0.045
397.52,-0.35,0.04
397.53,-0.34,0.05
397.53,-0.35,0.05
397.53,-0.35,0.045
397.54,-0.365,0.02
397.54,-0.37,0.015
397.54,-0.375,0.005
397.54,-0.375,0.025
397.55,-0.375,0.025
397.55,-0.365,0.015
397.55,-0.38,-0.005
397.56,-0.41,-0.015
397.56,-0.405,-0.015
397.56,-0.39,-0.015
397.56,-0.385,-0.02
397.57,-0.38,-0.025
397.57,-0.395,-0.055
397.57,-0.395,-0.035
397.57,-0.41,-0.045
397.58,-0.4,-0.04
397.58,-0.395,-0.03
397.58,-0.39,-0.04
397.59,-0.4,-0.05
397.59,-0.41,-0.06
397.59,-0.405,-0.055
397.59,-0.39,-0.055
397.6,-0.39,-0.055
397.6,-0.39,-0.065
397.6,-0.415,-0.075
397.61,-0.41,-0.075
397.61,-0.415,-0.07
397.61,-0.405,-0.07
397.61,-0.39,-0.07
397.62,-0.39,-0.065
397.62,-0.405,-0.085
397.62,-0.4,-0.08
397.62,-0.41,-0.08
397.63,-0.405,-0.065
397.63,-0.4,-0.075
397.63,-0.375,-0.065
397.64,-0.385,-0.08
397.64,-0.405,-0.09
397.64,-0.42,-0.075
397.64,-0.4,-0.075
397.65,-0.4,-0.075
397.65,-0.4,-0.08
397.65,-0.395,-0.09
397.66,-0.41,-0.085
397.66,-0.425,-0.085
397.66,-0.41,-0.075
397.66,-0.4,-0.065
397.67,-0.415,-0.075
397.67,-0.4,-0.085
397.67,-0.395,-0.09
397.67,-0.395,-0.08
397.68,-0.395,-0.075
397.68,-0.38,-0.08
397.68,-0.39,-0.09
397.69,-0.395,-0.09
397.69,-0.405,-0.1
397.69,-0.41,-0.08
397.69,-0.41,-0.075
397.7,-0.4,-0.08
397.7,-0.4,-0.08
397.7,-0.405,-0.1
397.71,-0.415,-0.095
397.71,-0.41,-0.095
397.71,-0.395,-0.08
397.71,-0.38,-0.08
397.72,-0.38,-0.075
397.72,-0.385,-0.085
397.72,-0.385,-0.1
397.72,-0.4,-0.085
397.73,-0.39,-0.075
397.73,-0.375,-0.08
397.73,-0.39,-0.08
397.74,-0.395,-0.085
397.74,-0.4,-0.095
397.74,-0.41,-0.105
397.74,-0.41,-0.09
397.75,-0.4,-0.075
397.75,-0.4,-0.085
397.75,-0.4,-0.095
397.76,-0.41,-0.095
397.76,-0.405,-0.095
397.76,-0.385,-0.085
397.76,-0.36,-0.095
397.77,-0.37,-0.085
397.77,-0.375,-0.085
397.77,-0.39,-0.09
397.77,-0.385,-0.07
397.78,-0.37,-0.06
397.78,-0.335,-0.035
397.78,-0.32,-0.005
397.79,-0.315,0.12
397.79,-0.3,0.435
397.79,-0.275,0.805
397.79,-0.21,0.875
397.8,-0.095,0.66
397.8,0.155,0.43
397.8,0.53,0.345
397.81,0.805,0.31
397.81,0.735,0.27
397.81,0.43,0.255
397.81,0.16,0.205
397.82,0.065,0.16
397.82,0.075,0.095
397.82,0.085,-0.01
397.82,0.08,-0.145
397.83,0.085,-0.31
397.83,0.09,-0.5
397.83,0.11,-0.74
397.84,0.115,-0.985
397.84,0.11,-1.235
397.84,0.115,-1.48
397.84,0.115,-1.73
397.85,0.115,-1.93
397.85,0.09,-2.115
397.85,0.08,-2.265
397.86,0.065,-2.4
397.86,0.08,-2.495
397.86,0.105,-2.55
397.86,0.095,-2.6
397.87,0.105,-2.67
397.87,0.105,-2.755
397.87,0.11,-2.845
397.88,0.075,-2.9
397.88,0.04,-2.925
397.88,-0.015,-2.95
397.88,-0.065,-2.975
397.89,-0.11,-2.995
397.89,-0.18,-3.01
397.89,-0.26,-3.02
397.89,-0.335,-3.03
397.9,-0.39,-3.02
397.9,-0.405,-3.02
397.9,-0.395,-3.035
397.91,-0.365,-3.02
397.91,-0.35,-3.005
397.91,-0.345,-2.975
397.91,-0.35,-2.955
397.92,-0.375,-2.91
397.92,-0.395,-2.845
397.92,-0.425,-2.775
397.92,-0.465,-2.66
397.93,-0.475,-2.525
397.93,-0.47,-2.395
397.93,-0.465,-2.25
397.94,-0.48,-2.09
397.94,-0.49,-1.88
397.94,-0.485,-1.635
397.94,-0.485,-1.4
397.95,-0.49,-1.19
397.95,-0.49,-0.975
397.95,-0.475,-0.76
397.96,-0.475,-0.56
397.96,-0.48,-0.36
397.96,-0.49,-0.17
397.96,-0.495,-0.005
397.97,-0.505,0.14
397.97,-0.525,0.26
397.97,-0.525,0.38
397.97,-0.52,0.52
397.98,-0.49,0.635
397.98,-0.47,0.71
397.98,-0.475,0.775
397.99,-0.475,0.81
397.99,-0.475,0.845
397.99,-0.465,0.88
397.99,-0.46,0.925
398,-0.435,0.965
398,-0.455,1.01
398,-0.45,1.025
398.01,-0.465,1.045
398.01,-0.47,1.085
398.01,-0.46,1.13
398.01,-0.46,1.155
398.02,-0.465,1.195
398.02,-0.465,1.205
398.02,-0.465,1.225
398.02,-0.45,1.27
398.03,-0.44,1.31
398.03,-0.42,1.35
398.03,-0.425,1.385
398.04,-0.445,1.42
398.04,-0.445,1.45
398.04,-0.445,1.495
398.04,-0.435,1.535
398.05,-0.45,1.575
398.05,-0.445,1.605
398.05,-0.465,1.63
398.06,-0.465,1.665
398.06,-0.455,1.72
398.06,-0.45,1.765
398.06,-0.445,1.805
398.07,-0.445,1.83
398.07,-0.43,1.845
398.07,-0.415,1.87
398.07,-0.39,1.925
398.08,-0.365,1.96
398.08,-0.365,1.985
398.08,-0.38,2.005
398.09,-0.405,2.015
398.09,-0.41,2.02
398.09,-0.4,2.04
398.09,-0.385,2.06
398.1,-0.36,2.07
398.1,-0.35,2.075
398.1,-0.355,2.06
398.11,-0.34,2.05
398.11,-0.335,2.055
398.11,-0.31,2.045
398.11,-0.31,2.025
398.12,-0.31,1.995
398.12,-0.315,1.96
398.12,-0.295,1.91
398.12,-0.27,1.88
398.13,-0.255,1.845
398.13,-0.23,1.785
398.13,-0.215,1.725
398.14,-0.21,1.655
398.14,-0.23,1.595
398.14,-0.23,1.54
398.14,-0.23,1.475
398.15,-0.21,1.415
398.15,-0.21,1.34
398.15,-0.215,1.265
398.16,-0.21,1.195
398.16,-0.19,1.125
398.16,-0.185,1.07
398.16,-0.18,1.01
398.17,-0.185,0.95
398.17,-0.2,0.88
398.17,-0.22,0.805
398.17,-0.225,0.765
398.18,-0.225,0.715
398.18,-0.21,0.68
398.18,-0.22,0.63
398.19,-0.225,0.57
398.19,-0.245,0.53
398.19,-0.235,0.495
398.19,-0.22,0.465
398.2,-0.21,0.435
398.2,-0.235,0.4
398.2,-0.25,0.36
398.21,-0.245,0.33
398.21,-0.255,0.305
398.21,-0.22,0.29
398.21,-0.22,0.27
398.22,-0.22,0.245
398.22,-0.245,0.235
398.22,-0.27,0.2
398.22,-0.285,0.19
398.23,-0.275,0.19
398.23,-0.27,0.165
398.23,-0.27,0.16
398.24,-0.28,0.14
398.24,-0.275,0.13
398.24,-0.28,0.13
398.24,-0.27,0.12
398.25,-0.26,0.115
398.25,-0.26,0.11
398.25,-0.26,0.09
398.26,-0.255,0.08
398.26,-0.26,0.085
398.26,-0.25,0.1
398.26,-0.265,0.1
398.27,-0.295,0.085
398.27,-0.305,0.07
398.27,-0.305,0.065
398.27,-0.29,0.075
398.28,-0.25,0.08
398.28,-0.245,0.085
398.28,-0.26,0.08
398.29,-0.28,0.07
398.29,-0.275,0.075
398.29,-0.28,0.085
398.29,-0.275,0.095
398.3,-0.28,0.1
398.3,-0.28,0.105
398.3,-0.275,0.115
398.31,-0.275,0.1
398.31,-0.27,0.11
398.31,-0.275,0.135
398.31,-0.295,0.135
398.32,-0.305,0.135
398.32,-0.32,0.125
398.32,-0.29,0.115
398.32,-0.27,0.115
398.33,-0.27,0.14
398.33,-0.27,0.14
398.33,-0.29,0.13
398.34,-0.305,0.13
398.34,-0.305,0.12
398.34,-0.29,0.12
398.34,-0.265,0.125
398.35,-0.25,0.115
398.35,-0.255,0.085
398.35,-0.25,0.06
398.36,-0.23,0.04
398.36,-0.23,0.05
398.36,-0.23,0.055
398.36,-0.225,0.04
398.37,-0.23,0.025
398.37,-0.25,0.025
398.37,-0.27,-0.005
398.38,-0.275,-0.005
398.38,-0.27,0
398.38,-0.26,-0.005
398.38,-0.27,-0.005
398.39,-0.265,-0.01
398.39,-0.255,-0.015
398.39,-0.26,-0.005
398.39,-0.255,-0.005
398.4,-0.275,-0.005
398.4,-0.31,-0.025
398.4,-0.325,-0.025
398.41,-0.34,-0.04
398.41,-0.345,-0.025
398.41,-0.325,-0.035
398.41,-0.305,-0.02
398.42,-0.305,-0.03
398.42,-0.315,-0.04
398.42,-0.34,-0.05
398.42,-0.36,-0.055
398.43,-0.345,-0.04
398.43,-0.325,-0.035
398.43,-0.315,-0.05
398.44,-0.32,-0.055
398.44,-0.33,-0.055
398.44,-0.36,-0.07
398.44,-0.335,-0.055
398.45,-0.345,-0.07
398.45,-0.345,-0.07
398.45,-0.35,-0.08
398.46,-0.345,-0.08
398.46,-0.36,-0.075
398.46,-0.35,-0.06
398.46,-0.34,-0.075
398.47,-0.335,-0.08
398.47,-0.335,-0.085
398.47,-0.36,-0.085
398.47,-0.36,-0.09
398.48,-0.35,-0.075
398.48,-0.35,-0.08
398.48,-0.35,-0.085
398.49,-0.355,-0.08
398.49,-0.35,-0.095
398.49,-0.36,-0.09
398.49,-0.34,-0.08
398.5,-0.35,-0.085
398.5,-0.35,-0.09
398.5,-0.36,-0.1
398.51,-0.365,-0.105
398.51,-0.365,-0.105
398.51,-0.35,-0.085
398.51,-0.35,-0.08
398.52,-0.355,-0.085
398.52,-0.355,-0.095
398.52,-0.35,-0.095
398.52,-0.35,-0.09
398.53,-0.35,-0.09
398.53,-0.34,-0.075
398.53,-0.335,-0.08
398.54,-0.34,-0.095
398.54,-0.355,-0.105
398.54,-0.355,-0.09
398.54,-0.35,-0.075
398.55,-0.345,-0.075
398.55,-0.345,-0.09
398.55,-0.35,-0.085
398.56,-0.345,-0.11
398.56,-0.355,-0.09
398.56,-0.345,-0.08
398.56,-0.335,-0.08
398.57,-0.34,-0.07
398.57,-0.35,-0.085
398.57,-0.36,-0.09
398.57,-0.355,-0.095
398.58,-0.33,-0.075
398.58,-0.33,-0.075
398.58,-0.32,-0.065
398.59,-0.325,-0.075
398.59,-0.345,-0.075
398.59,-0.335,-0.06
398.59,-0.315,-0.03
398.6,-0.31,0.025
398.6,-0.285,0.15
398.6,-0.29,0.42
398.61,-0.28,0.79
398.61,-0.255,0.95
398.61,-0.19,0.805
398.61,-0.06,0.57
398.62,0.225,0.425
398.62,0.59,0.375
398.62,0.795,0.335
398.62,0.685,0.3
398.63,0.405,0.27
398.63,0.2,0.22
398.63,0.125,0.185
398.64,0.095,0.12
398.64,0.11,0
398.64,0.12,-0.13
398.64,0.145,-0.28
398.65,0.17,-0.48
398.65,0.18,-0.73
398.65,0.185,-0.955
398.66,0.185,-1.195
398.66,0.175,-1.435
398.66,0.18,-1.67
398.66,0.165,-1.885
398.67,0.145,-2.05
398.67,0.12,-2.21
398.67,0.105,-2.355
398.67,0.1,-2.445
398.68,0.105,-2.505
398.68,0.09,-2.575
398.68,0.075,-2.645
398.69,0.045,-2.74
398.69,0.025,-2.825
398.69,-0.015,-2.88
398.69,-0.06,-2.885
398.7,-0.11,-2.915
398.7,-0.175,-2.95
398.7,-0.23,-2.98
398.71,-0.28,-2.995
398.71,-0.37,-2.995
398.71,-0.455,-3
398.71,-0.54,-3.025
398.72,-0.61,-3.02
398.72,-0.645,-3.025
398.72,-0.635,-3.015
398.72,-0.61,-3.015
398.73,-0.57,-2.98
398.73,-0.54,-2.955
398.73,-0.555,-2.905
398.74,-0.57,-2.855
398.74,-0.585,-2.775
398.74,-0.61,-2.665
398.74,-0.61,-2.535
398.75,-0.6,-2.4
398.75,-0.575,-2.285
398.75,-0.56,-2.135
398.76,-0.54,-1.96
398.76,-0.535,-1.75
398.76,-0.515,-1.525
398.76,-0.505,-1.325
398.77,-0.495,-1.12
398.77,-0.485,-0.935
398.77,-0.485,-0.735
398.77,-0.48,-0.53
398.78,-0.465,-0.33
398.78,-0.465,-0.16
398.78,-0.47,0
398.79,-0.485,0.135
398.79,-0.515,0.255
398.79,-0.515,0.39
398.79,-0.505,0.52
398.8,-0.47,0.615
398.8,-0.465,0.67
398.8,-0.47,0.705
398.81,-0.48,0.735
398.81,-0.47,0.785
398.81,-0.45,0.825
398.81,-0.435,0.86
398.82,-0.435,0.895
398.82,-0.445,0.92
398.82,-0.445,0.955
398.82,-0.445,0.985
398.83,-0.44,1.025
398.83,-0.435,1.045
398.83,-0.44,1.075
398.84,-0.445,1.1
398.84,-0.45,1.13
398.84,-0.465,1.155
398.84,-0.46,1.2
398.85,-0.45,1.225
398.85,-0.445,1.255
398.85,-0.445,1.295
398.86,-0.455,1.315
398.86,-0.465,1.36
398.86,-0.44,1.395
398.86,-0.445,1.44
398.87,-0.445,1.475
398.87,-0.455,1.49
398.87,-0.465,1.52
398.88,-0.475,1.575
398.88,-0.465,1.615
398.88,-0.46,1.66
398.88,-0.46,1.685
398.89,-0.455,1.705
398.89,-0.47,1.73
398.89,-0.475,1.765
398.89,-0.45,1.8
398.9,-0.43,1.83
398.9,-0.44,1.855
398.9,-0.42,1.87
398.91,-0.42,1.89
398.91,-0.415,1.925
398.91,-0.41,1.94
398.91,-0.39,1.96
398.92,-0.38,1.965
398.92,-0.36,1.975
398.92,-0.37,1.96
398.92,-0.38,1.975
398.93,-0.345,1.97
398.93,-0.33,1.96
398.93,-0.325,1.935
398.94,-0.325,1.91
398.94,-0.315,1.88
398.94,-0.3,1.85
398.94,-0.28,1.825
398.95,-0.275,1.79
398.95,-0.265,1.74
398.95,-0.26,1.69
398.96,-0.255,1.645
398.96,-0.25,1.605
398.96,-0.24,1.555
398.96,-0.225,1.5
398.97,-0.215,1.45
398.97,-0.215,1.375
398.97,-0.225,1.31
398.97,-0.22,1.27
398.98,-0.2,1.21
398.98,-0.21,1.16
398.98,-0.2,1.1
398.99,-0.2,1.03
398.99,-0.215,0.97
398.99,-0.23,0.915
398.99,-0.22,0.865
399,-0.2,0.815
399,-0.205,0.77
399,-0.22,0.71
399.01,-0.23,0.66
399.01,-0.235,0.625
399.01,-0.23,0.585
399.01,-0.21,0.56
399.02,-0.23,0.51
399.02,-0.24,0.465
399.02,-0.24,0.425
399.02,-0.25,0.405
399.03,-0.255,0.39
399.03,-0.245,0.36
399.03,-0.245,0.33
399.04,-0.26,0.295
399.04,-0.275,0.265
399.04,-0.285,0.26
399.04,-0.285,0.255
399.05,-0.275,0.23
399.05,-0.275,0.215
399.05,-0.275,0.19
399.06,-0.29,0.175
399.06,-0.295,0.165
399.06,-0.295,0.165
399.06,-0.28,0.155
399.07,-0.28,0.145
399.07,-0.295,0.13
399.07,-0.3,0.12
399.07,-0.305,0.115
399.08,-0.3,0.13
399.08,-0.295,0.115
399.08,-0.285,0.115
399.09,-0.285,0.1
399.09,-0.29,0.095
399.09,-0.315,0.095
399.09,-0.305,0.11
399.1,-0.295,0.1
399.1,-0.295,0.1
399.1,-0.3,0.095
399.11,-0.305,0.085
399.11,-0.315,0.08
399.11,-0.31,0.105
399.11,-0.29,0.095
399.12,-0.295,0.1
399.12,-0.305,0.095
399.12,-0.31,0.09
399.12,-0.305,0.085
399.13,-0.305,0.105
399.13,-0.295,0.105
399.13,-0.295,0.1
399.14,-0.295,0.11
399.14,-0.305,0.095
399.14,-0.32,0.105
399.14,-0.295,0.11
399.15,-0.3,0.115
399.15,-0.29,0.105
399.15,-0.295,0.11
399.16,-0.305,0.095
399.16,-0.315,0.105
399.16,-0.31,0.11
399.16,-0.31,0.12
399.17,-0.31,0.105
399.17,-0.315,0.11
399.17,-0.32,0.1
399.17,-0.33,0.095
399.18,-0.32,0.11
399.18,-0.315,0.115
399.18,-0.315,0.1
399.19,-0.32,0.095
399.19,-0.33,0.085
399.19,-0.34,0.08
399.19,-0.335,0.105
399.2,-0.325,0.105
399.2,-0.33,0.085
399.2,-0.34,0.085
399.21,-0.345,0.07
399.21,-0.35,0.07
399.21,-0.335,0.07
399.21,-0.34,0.075
399.22,-0.34,0.08
399.22,-0.345,0.065
399.22,-0.36,0.05
399.22,-0.355,0.055
399.23,-0.34,0.05
399.23,-0.33,0.05
399.23,-0.335,0.055
399.24,-0.345,0.035
399.24,-0.355,0.035
399.24,-0.36,0.04
399.24,-0.35,0.045
399.25,-0.34,0.05
399.25,-0.355,0.035
399.25,-0.355,0.025
399.26,-0.35,0.02
399.26,-0.355,0.015
399.26,-0.36,0.03
399.26,-0.36,0.025
399.27,-0.36,0.025
399.27,-0.365,0.02
399.27,-0.375,0.025
399.27,-0.37,0.025
399.28,-0.36,0.035
399.28,-0.355,0.05
399.28,-0.365,0.045
399.29,-0.375,0.045
399.29,-0.39,0.035
399.29,-0.375,0.035
399.29,-0.365,0.05
399.3,-0.365,0.05
399.3,-0.365,0.045
399.3,-0.365,0.025
399.31,-0.37,0.01
399.31,-0.37,-0.005
399.31,-0.36,0
399.31,-0.35,-0.01
399.32,-0.345,-0.02
399.32,-0.345,-0.025
399.32,-0.335,-0.03
399.32,-0.34,-0.04
399.33,-0.32,-0.055
399.33,-0.32,-0.05
399.33,-0.33,-0.065
399.34,-0.335,-0.09
399.34,-0.355,-0.1
399.34,-0.36,-0.1
399.34,-0.345,-0.085
399.35,-0.345,-0.09
399.35,-0.34,-0.1
399.35,-0.345,-0.12
399.36,-0.36,-0.115
399.36,-0.36,-0.095
399.36,-0.345,-0.08
399.36,-0.34,-0.06
399.37,-0.35,-0.07
399.37,-0.365,-0.08
399.37,-0.38,-0.09
399.38,-0.4,-0.08
399.38,-0.38,-0.075
399.38,-0.37,-0.07
399.38,-0.38,-0.065
399.39,-0.39,-0.085
399.39,-0.39,-0.09
399.39,-0.39,-0.08
399.39,-0.38,-0.075
399.4,-0.37,-0.06
399.4,-0.38,-0.065
399.4,-0.39,-0.065
399.41,-0.4,-0.09
399.41,-0.395,-0.09
399.41,-0.38,-0.065
399.41,-0.375,-0.065
399.42,-0.375,-0.07
399.42,-0.375,-0.08
399.42,-0.385,-0.085
399.42,-0.4,-0.09
399.43,-0.375,-0.065
399.43,-0.37,-0.07
399.43,-0.365,-0.065
399.44,-0.37,-0.075
399.44,-0.37,-0.075
399.44,-0.38,-0.06
399.44,-0.37,-0.05
399.45,-0.35,-0.035
399.45,-0.34,-0.01
399.45,-0.34,0.05
399.46,-0.34,0.215
399.46,-0.325,0.575
399.46,-0.285,0.92
399.46,-0.25,0.945
399.47,-0.185,0.695
399.47,-0.02,0.475
399.47,0.31,0.385
399.47,0.62,0.35
399.48,0.69,0.34
399.48,0.465,0.31
399.48,0.18,0.29
399.49,0.045,0.255
399.49,0.035,0.205
399.49,0.06,0.165
399.49,0.09,0.095
399.5,0.115,-0.02
399.5,0.13,-0.17
399.5,0.14,-0.355
399.51,0.155,-0.555
399.51,0.17,-0.75
399.51,0.2,-0.915
399.51,0.21,-1.12
399.52,0.22,-1.355
399.52,0.215,-1.585
399.52,0.22,-1.77
399.52,0.22,-1.885
399.53,0.245,-2.005
399.53,0.275,-2.11
399.53,0.295,-2.205
399.54,0.305,-2.29
399.54,0.29,-2.395
399.54,0.275,-2.5
399.54,0.29,-2.6
399.55,0.295,-2.69
399.55,0.26,-2.755
399.55,0.205,-2.82
399.56,0.13,-2.865
399.56,0.085,-2.885
399.56,0.055,-2.92
399.56,0.005,-2.94
399.57,-0.085,-2.97
399.57,-0.19,-2.995
399.57,-0.26,-3
399.57,-0.32,-2.995
399.58,-0.305,-2.99
399.58,-0.28,-2.985
399.58,-0.28,-2.97
399.59,-0.275,-2.96
399.59,-0.3,-2.945
399.59,-0.325,-2.875
399.59,-0.33,-2.795
399.6,-0.355,-2.715
399.6,-0.39,-2.62
399.6,-0.425,-2.495
399.61,-0.455,-2.38
399.61,-0.48,-2.22
399.61,-0.48,-2.045
399.61,-0.47,-1.845
399.62,-0.475,-1.635
399.62,-0.495,-1.43
399.62,-0.505,-1.205
399.62,-0.515,-0.985
399.63,-0.515,-0.78
399.63,-0.495,-0.565
399.63,-0.495,-0.375
399.64,-0.5,-0.195
399.64,-0.52,-0.04
399.64,-0.535,0.11
399.64,-0.535,0.245
399.65,-0.53,0.37
399.65,-0.53,0.495
399.65,-0.54,0.62
399.66,-0.525,0.7
399.66,-0.525,0.785
399.66,-0.505,0.85
399.66,-0.485,0.9
399.67,-0.495,0.95
399.67,-0.49,0.96
399.67,-0.495,0.99
399.67,-0.51,1.04
399.68,-0.48,1.09
399.68,-0.48,1.125
399.68,-0.47,1.155
399.69,-0.48,1.175
399.69,-0.48,1.205
399.69,-0.475,1.25
399.69,-0.475,1.295
399.7,-0.48,1.33
399.7,-0.48,1.355
399.7,-0.475,1.38
399.71,-0.495,1.415
399.71,-0.5,1.455
399.71,-0.48,1.515
399.71,-0.495,1.535
399.72,-0.485,1.57
399.72,-0.495,1.6
399.72,-0.49,1.635
399.72,-0.515,1.68
399.73,-0.5,1.72
399.73,-0.485,1.76
399.73,-0.485,1.8
399.74,-0.495,1.825
399.74,-0.495,1.845
399.74,-0.515,1.89
399.74,-0.485,1.935
399.75,-0.48,1.97
399.75,-0.47,2.005
399.75,-0.48,2.035
399.76,-0.5,2.05
399.76,-0.49,2.08
399.76,-0.48,2.095
399.76,-0.45,2.115
399.77,-0.455,2.13
399.77,-0.455,2.125
399.77,-0.46,2.115
399.77,-0.455,2.12
399.78,-0.42,2.125
399.78,-0.41,2.115
399.78,-0.4,2.095
399.79,-0.4,2.07
399.79,-0.39,2.05
399.79,-0.39,2.02
399.79,-0.385,1.985
399.8,-0.355,1.94
399.8,-0.345,1.89
399.8,-0.35,1.825
399.81,-0.34,1.775
399.81,-0.345,1.725
399.81,-0.32,1.675
399.81,-0.315,1.615
399.82,-0.31,1.56
399.82,-0.3,1.49
399.82,-0.295,1.4
399.82,-0.305,1.35
399.83,-0.3,1.285
399.83,-0.28,1.225
399.83,-0.29,1.165
399.84,-0.29,1.09
399.84,-0.295,1.025
399.84,-0.29,0.965
399.84,-0.28,0.915
399.85,-0.275,0.86
399.85,-0.275,0.8
399.85,-0.29,0.74
399.86,-0.295,0.695
399.86,-0.3,0.65
399.86,-0.295,0.61
399.86,-0.295,0.565
399.87,-0.295,0.53
399.87,-0.295,0.48
399.87,-0.32,0.45
399.88,-0.315,0.41
399.88,-0.305,0.385
399.88,-0.31,0.375
399.88,-0.315,0.34
399.89,-0.315,0.305
399.89,-0.33,0.28
399.89,-0.345,0.26
399.89,-0.335,0.255
399.9,-0.34,0.235
399.9,-0.335,0.235
399.9,-0.345,0.205
399.91,-0.36,0.185
399.91,-0.35,0.18
399.91,-0.345,0.19
399.91,-0.34,0.18
399.92,-0.335,0.18
399.92,-0.355,0.145
399.92,-0.35,0.14
399.92,-0.355,0.15
399.93,-0.345,0.14
399.93,-0.34,0.145
399.93,-0.35,0.125
399.94,-0.355,0.115
399.94,-0.355,0.095
399.94,-0.365,0.105
399.94,-0.35,0.11
399.95,-0.355,0.12
399.95,-0.36,0.115
399.95,-0.37,0.105
399.96,-0.375,0.08
399.96,-0.375,0.11
399.96,-0.37,0.11
399.96,-0.36,0.105
399.97,-0.355,0.1
399.97,-0.365,0.1
399.97,-0.36,0.08
399.97,-0.36,0.085
399.98,-0.345,0.11
399.98,-0.35,0.115
399.98,-0.35,0.105
399.99,-0.355,0.1
399.99,-0.37,0.09
399.99,-0.375,0.1
399.99,-0.36,0.115
400,-0.355,0.12
400,-0.345,0.12
400,-0.36,0.105
400.01,-0.36,0.1
400.01,-0.375,0.105
400.01,-0.36,0.125
400.01,-0.355,0.12
400.02,-0.37,0.12
400.02,-0.37,0.11
400.02,-0.385,0.1
400.02,-0.39,0.115
400.03,-0.36,0.115
400.03,-0.365,0.12
400.03,-0.36,0.12
400.04,-0.37,0.115
400.04,-0.375,0.105
400.04,-0.37,0.105
400.04,-0.365,0.125
400.05,-0.35,0.12
400.05,-0.36,0.115
400.05,-0.36,0.095
400.06,-0.36,0.095
400.06,-0.38,0.095
400.06,-0.36,0.11
400.06,-0.36,0.1
400.07,-0.37,0.09
400.07,-0.385,0.075
400.07,-0.38,0.065
400.07,-0.38,0.07
400.08,-0.38,0.08
400.08,-0.375,0.075
400.08,-0.375,0.06
400.09,-0.375,0.05
400.09,-0.39,0.035
400.09,-0.41,0.035
400.09,-0.39,0.055
400.1,-0.375,0.045
400.1,-0.375,0.05
400.1,-0.385,0.04
400.11,-0.395,0.03
400.11,-0.405,0.02
400.11,-0.39,0.03
400.11,-0.38,0.035
400.12,-0.39,0.03
400.12,-0.405,0.01
400.12,-0.415,0.005
400.12,-0.41,0.01
400.13,-0.405,0.02
400.13,-0.39,0.015
400.13,-0.39,0.005
400.14,-0.4,-0.01
400.14,-0.395,-0.01
400.14,-0.395,-0.01
400.14,-0.39,0
400.15,-0.385,-0.005
400.15,-0.38,-0.01
400.15,-0.405,-0.015
400.16,-0.415,-0.025
400.16,-0.415,-0.025
400.16,-0.4,-0.01
400.16,-0.395,0
400.17,-0.385,-0.005
400.17,-0.4,-0.02
400.17,-0.4,-0.03
400.17,-0.395,-0.025
400.18,-0.39,-0.025
400.18,-0.385,-0.02
400.18,-0.385,-0.03
400.19,-0.39,-0.035
400.19,-0.41,-0.035
400.19,-0.42,-0.035
400.19,-0.41,-0.035
400.2,-0.395,-0.035
400.2,-0.385,-0.035
400.2,-0.39,-0.04
400.21,-0.405,-0.055
400.21,-0.415,-0.05
400.21,-0.395,-0.035
400.21,-0.4,-0.03
400.22,-0.395,-0.045
400.22,-0.395,-0.04
400.22,-0.405,-0.045
400.22,-0.41,-0.045
400.23,-0.405,-0.03
400.23,-0.39,-0.025
400.23,-0.385,-0.025
400.24,-0.385,-0.025
400.24,-0.39,-0.025
400.24,-0.395,-0.015
400.24,-0.4,-0.005
400.25,-0.395,-0.005
400.25,-0.39,-0.005
400.25,-0.405,-0.005
400.26,-0.4,0.005
400.26,-0.39,0.005
400.26,-0.38,0.015
400.26,-0.375,0.01
400.27,-0.39,0.005
400.27,-0.395,0.005
400.27,-0.4,-0.005
400.27,-0.385,0.01
400.28,-0.36,-0.005
400.28,-0.36,-0.005
400.28,-0.35,-0.02
400.29,-0.35,-0.04
400.29,-0.345,-0.055
400.29,-0.34,-0.035
400.29,-0.33,-0.03
400.3,-0.315,-0.01
400.3,-0.31,0.015
400.3,-0.3,0.04
400.31,-0.29,0.185
400.31,-0.285,0.485
400.31,-0.26,0.845
400.31,-0.23,0.965
400.32,-0.175,0.8
400.32,-0.09,0.54
400.32,0.13,0.385
400.32,0.485,0.335
400.33,0.78,0.305
400.33,0.76,0.275
400.33,0.495,0.25
400.34,0.23,0.2
400.34,0.105,0.155
400.34,0.09,0.09
400.34,0.105,0.015
400.35,0.105,-0.105
400.35,0.1,-0.255
400.35,0.09,-0.455
400.36,0.1,-0.68
400.36,0.095,-0.885
400.36,0.115,-1.105
400.36,0.135,-1.34
400.37,0.135,-1.595
400.37,0.125,-1.82
400.37,0.11,-2.02
400.38,0.11,-2.15
400.38,0.125,-2.275
400.38,0.165,-2.365
400.38,0.18,-2.465
400.39,0.18,-2.55
400.39,0.175,-2.635
400.39,0.18,-2.73
400.39,0.185,-2.79
400.4,0.185,-2.84
400.4,0.145,-2.875
400.4,0.09,-2.91
400.41,0.04,-2.945
400.41,0.005,-2.94
400.41,-0.015,-2.955
400.41,-0.07,-2.965
400.42,-0.16,-2.97
400.42,-0.265,-2.99
400.42,-0.35,-3
400.42,-0.4,-2.99
400.43,-0.395,-2.975
400.43,-0.36,-2.975
400.43,-0.33,-2.97
400.44,-0.335,-2.955
400.44,-0.35,-2.93
400.44,-0.39,-2.885
400.44,-0.415,-2.805
400.45,-0.43,-2.725
400.45,-0.47,-2.625
400.45,-0.5,-2.51
400.46,-0.53,-2.415
400.46,-0.52,-2.28
400.46,-0.515,-2.1
400.46,-0.49,-1.89
400.47,-0.49,-1.67
400.47,-0.49,-1.46
400.47,-0.5,-1.245
400.47,-0.49,-1.02
400.48,-0.475,-0.795
400.48,-0.47,-0.58
400.48,-0.47,-0.39
400.49,-0.485,-0.205
400.49,-0.505,-0.035
400.49,-0.515,0.145
400.49,-0.52,0.295
400.5,-0.525,0.455
400.5,-0.52,0.57
400.5,-0.515,0.675
400.51,-0.515,0.75
400.51,-0.495,0.815
400.51,-0.485,0.87
400.51,-0.47,0.915
400.52,-0.475,0.95
400.52,-0.465,0.985
400.52,-0.455,1.005
400.52,-0.455,1.055
400.53,-0.435,1.1
400.53,-0.425,1.13
400.53,-0.425,1.16
400.54,-0.425,1.185
400.54,-0.42,1.21
400.54,-0.425,1.235
400.54,-0.42,1.285
400.55,-0.42,1.325
400.55,-0.43,1.345
400.55,-0.425,1.37
400.56,-0.445,1.395
400.56,-0.455,1.44
400.56,-0.425,1.48
400.56,-0.415,1.51
400.57,-0.415,1.55
400.57,-0.415,1.565
400.57,-0.395,1.585
400.57,-0.4,1.64
400.58,-0.385,1.68
400.58,-0.375,1.71
400.58,-0.37,1.735
400.59,-0.37,1.76
400.59,-0.39,1.775
400.59,-0.385,1.815
400.59,-0.36,1.85
400.6,-0.36,1.875
400.6,-0.355,1.9
400.6,-0.355,1.92
400.61,-0.37,1.935
400.61,-0.375,1.955
400.61,-0.38,2
400.61,-0.36,2.02
400.62,-0.37,2.04
400.62,-0.36,2.025
400.62,-0.35,2.03
400.62,-0.345,2.045
400.63,-0.315,2.055
400.63,-0.3,2.05
400.63,-0.27,2.03
400.64,-0.27,2.025
400.64,-0.26,1.98
400.64,-0.265,1.975
400.64,-0.26,1.955
400.65,-0.26,1.925
400.65,-0.24,1.89
400.65,-0.23,1.835
400.66,-0.23,1.785
400.66,-0.215,1.735
400.66,-0.215,1.71
400.66,-0.21,1.655
400.67,-0.225,1.6
400.67,-0.225,1.525
400.67,-0.22,1.455
400.67,-0.22,1.39
400.68,-0.195,1.335
400.68,-0.17,1.28
400.68,-0.16,1.215
400.69,-0.17,1.13
400.69,-0.175,1.055
400.69,-0.185,1.005
400.69,-0.185,0.96
400.7,-0.185,0.89
400.7,-0.185,0.835
400.7,-0.195,0.76
400.71,-0.205,0.71
400.71,-0.22,0.665
400.71,-0.205,0.63
400.71,-0.185,0.595
400.72,-0.185,0.555
400.72,-0.21,0.505
400.72,-0.225,0.465
400.72,-0.23,0.445
400.73,-0.24,0.42
400.73,-0.235,0.395
400.73,-0.25,0.355
400.74,-0.255,0.32
400.74,-0.27,0.305
400.74,-0.27,0.275
400.74,-0.27,0.27
400.75,-0.265,0.255
400.75,-0.28,0.22
400.75,-0.29,0.2
400.76,-0.295,0.19
400.76,-0.265,0.18
400.76,-0.245,0.175
400.76,-0.225,0.155
400.77,-0.235,0.145
400.77,-0.27,0.125
400.77,-0.285,0.115
400.77,-0.305,0.115
400.78,-0.315,0.12
400.78,-0.29,0.115
400.78,-0.285,0.11
400.79,-0.285,0.09
400.79,-0.285,0.085
400.79,-0.295,0.1
400.79,-0.29,0.095
400.8,-0.255,0.105
400.8,-0.26,0.095
400.8,-0.27,0.07
400.81,-0.285,0.055
400.81,-0.3,0.065
400.81,-0.275,0.08
400.81,-0.265,0.08
400.82,-0.27,0.08
400.82,-0.285,0.065
400.82,-0.295,0.065
400.82,-0.3,0.075
400.83,-0.285,0.08
400.83,-0.28,0.09
400.83,-0.29,0.085
400.84,-0.285,0.075
400.84,-0.285,0.07
400.84,-0.3,0.085
400.84,-0.285,0.09
400.85,-0.27,0.1
400.85,-0.275,0.085
400.85,-0.275,0.09
400.86,-0.29,0.065
400.86,-0.285,0.07
400.86,-0.265,0.09
400.86,-0.265,0.09
400.87,-0.28,0.095
400.87,-0.29,0.08
400.87,-0.3,0.07
400.88,-0.29,0.08
400.88,-0.27,0.09
400.88,-0.26,0.095
400.88,-0.265,0.09
400.89,-0.29,0.09
400.89,-0.3,0.075
400.89,-0.315,0.08
400.89,-0.31,0.09
400.9,-0.29,0.095
400.9,-0.29,0.095
400.9,-0.29,0.07
400.91,-0.28,0.07
400.91,-0.295,0.075
400.91,-0.28,0.085
400.91,-0.285,0.085
400.92,-0.285,0.08
400.92,-0.295,0.055
400.92,-0.3,0.055
400.92,-0.315,0.05
400.93,-0.305,0.055
400.93,-0.295,0.055
400.93,-0.31,0.045
400.94,-0.315,0.04
400.94,-0.35,0.035
400.94,-0.33,0.035
400.94,-0.32,0.045
400.95,-0.295,0.035
400.95,-0.295,0.035
400.95,-0.32,0.015
400.96,-0.325,0.005
400.96,-0.33,0.02
400.96,-0.325,0.02
400.96,-0.315,0.015
400.97,-0.325,0.03
400.97,-0.33,-0.005
400.97,-0.335,-0.01
400.97,-0.335,-0.005
400.98,-0.325,0.005
400.98,-0.315,-0.005
400.98,-0.32,-0.01
400.99,-0.33,0
400.99,-0.33,-0.01
400.99,-0.335,-0.01
400.99,-0.325,-0.015
401,-0.32,-0.01
401,-0.32,-0.01
401,-0.335,-0.025
401.01,-0.335,-0.04
401.01,-0.34,-0.025
401.01,-0.325,-0.03
401.01,-0.32,-0.015
401.02,-0.325,-0.025
401.02,-0.33,-0.04
401.02,-0.335,-0.045
401.02,-0.34,-0.035
401.03,-0.335,-0.03
401.03,-0.335,-0.035
401.03,-0.33,-0.03
401.04,-0.33,-0.05
401.04,-0.35,-0.055
401.04,-0.34,-0.045
401.04,-0.335,-0.04
401.05,-0.33,-0.035
401.05,-0.34,-0.045
401.05,-0.345,-0.055
401.06,-0.35,-0.055
401.06,-0.35,-0.055
401.06,-0.335,-0.05
401.06,-0.325,-0.045
401.07,-0.325,-0.04
401.07,-0.335,-0.06
401.07,-0.345,-0.06
401.07,-0.36,-0.06
401.08,-0.335,-0.05
401.08,-0.33,-0.055
401.08,-0.33,-0.055
401.09,-0.34,-0.06
401.09,-0.35,-0.065
401.09,-0.345,-0.06
401.09,-0.335,-0.05
401.1,-0.325,-0.055
401.1,-0.335,-0.06
401.1,-0.325,-0.06
401.11,-0.345,-0.07
401.11,-0.345,-0.065
401.11,-0.345,-0.05
401.11,-0.335,-0.055
401.12,-0.335,-0.06
401.12,-0.335,-0.06
401.12,-0.34,-0.08
401.12,-0.345,-0.06
401.13,-0.335,-0.055
401.13,-0.33,-0.06
401.13,-0.32,-0.055
401.14,-0.33,-0.065
401.14,-0.335,-0.07
401.14,-0.335,-0.065
401.14,-0.325,-0.045
401.15,-0.32,-0.045
401.15,-0.31,-0.05
401.15,-0.325,-0.055
401.16,-0.32,-0.04
401.16,-0.325,-0.035
401.16,-0.31,0.02
401.16,-0.29,0.07
401.17,-0.285,0.215
401.17,-0.285,0.51
401.17,-0.26,0.88
401.17,-0.21,1.045
401.18,-0.16,0.88
401.18,-0.02,0.63
401.18,0.28,0.495
401.19,0.655,0.445
401.19,0.815,0.41
401.19,0.655,0.39
401.19,0.345,0.355
401.2,0.13,0.33
401.2,0.085,0.275
401.2,0.085,0.19
401.21,0.085,0.095
401.21,0.1,-0.035
401.21,0.125,-0.2
401.21,0.16,-0.405
401.22,0.175,-0.64
401.22,0.16,-0.885
401.22,0.17,-1.15
401.22,0.18,-1.415
401.23,0.17,-1.65
401.23,0.16,-1.845
401.23,0.135,-2.04
401.24,0.145,-2.225
401.24,0.15,-2.365
401.24,0.15,-2.465
401.24,0.145,-2.545
401.25,0.135,-2.645
401.25,0.105,-2.745
401.25,0.07,-2.835
401.26,0.025,-2.88
401.26,-0.05,-2.91
401.26,-0.11,-2.925
401.26,-0.155,-2.93
401.27,-0.185,-2.96
401.27,-0.24,-2.97
401.27,-0.31,-2.99
401.27,-0.41,-2.985
401.28,-0.485,-2.985
401.28,-0.525,-2.98
401.28,-0.555,-2.99
401.29,-0.545,-2.99
401.29,-0.525,-2.99
401.29,-0.485,-2.975
401.29,-0.46,-2.925
401.3,-0.46,-2.87
401.3,-0.465,-2.81
401.3,-0.485,-2.715
401.31,-0.495,-2.585
401.31,-0.53,-2.42
401.31,-0.505,-2.245
401.31,-0.475,-2.065
401.32,-0.455,-1.835
401.32,-0.45,-1.6
401.32,-0.445,-1.375
401.32,-0.45,-1.13
401.33,-0.45,-0.9
401.33,-0.445,-0.675
401.33,-0.45,-0.465
401.34,-0.47,-0.295
401.34,-0.475,-0.11
401.34,-0.515,0.05
401.34,-0.51,0.195
401.35,-0.505,0.34
401.35,-0.52,0.47
401.35,-0.515,0.58
401.36,-0.505,0.645
401.36,-0.505,0.71
401.36,-0.495,0.765
401.36,-0.5,0.81
401.37,-0.5,0.835
401.37,-0.49,0.855
401.37,-0.5,0.88
401.38,-0.51,0.91
401.38,-0.49,0.95
401.38,-0.48,0.98
401.38,-0.48,1.015
401.39,-0.495,1.03
401.39,-0.495,1.055
401.39,-0.495,1.08
401.39,-0.495,1.12
401.4,-0.485,1.14
401.4,-0.48,1.18
401.4,-0.495,1.2
401.41,-0.5,1.23
401.41,-0.51,1.275
401.41,-0.49,1.305
401.41,-0.475,1.335
401.42,-0.475,1.355
401.42,-0.485,1.38
401.42,-0.49,1.405
401.42,-0.495,1.45
401.43,-0.49,1.49
401.43,-0.475,1.53
401.43,-0.485,1.565
401.44,-0.5,1.59
401.44,-0.5,1.62
401.44,-0.49,1.66
401.44,-0.48,1.71
401.45,-0.47,1.72
401.45,-0.46,1.76
401.45,-0.465,1.785
401.46,-0.465,1.795
401.46,-0.455,1.825
401.46,-0.45,1.86
401.46,-0.435,1.88
401.47,-0.43,1.905
401.47,-0.415,1.91
401.47,-0.43,1.905
401.47,-0.42,1.935
401.48,-0.4,1.95
401.48,-0.385,1.945
401.48,-0.37,1.95
401.49,-0.375,1.92
401.49,-0.37,1.905
401.49,-0.37,1.895
401.49,-0.345,1.88
401.5,-0.33,1.855
401.5,-0.32,1.815
401.5,-0.31,1.755
401.51,-0.31,1.7
401.51,-0.315,1.655
401.51,-0.285,1.615
401.51,-0.265,1.55
401.52,-0.255,1.475
401.52,-0.255,1.405
401.52,-0.25,1.335
401.52,-0.25,1.295
401.53,-0.23,1.23
401.53,-0.225,1.16
401.53,-0.22,1.09
401.54,-0.22,1.01
401.54,-0.205,0.955
401.54,-0.215,0.895
401.54,-0.22,0.855
401.55,-0.205,0.795
401.55,-0.205,0.74
401.55,-0.23,0.675
401.56,-0.23,0.635
401.56,-0.23,0.585
401.56,-0.225,0.555
401.56,-0.225,0.515
401.57,-0.225,0.47
401.57,-0.24,0.43
401.57,-0.25,0.395
401.57,-0.245,0.365
401.58,-0.245,0.35
401.58,-0.24,0.325
401.58,-0.265,0.3
401.59,-0.265,0.26
401.59,-0.265,0.235
401.59,-0.275,0.235
401.59,-0.265,0.225
401.6,-0.26,0.215
401.6,-0.28,0.21
401.6,-0.28,0.185
401.61,-0.285,0.175
401.61,-0.295,0.17
401.61,-0.28,0.165
401.61,-0.275,0.165
401.62,-0.285,0.15
401.62,-0.295,0.135
401.62,-0.305,0.12
401.62,-0.31,0.125
401.63,-0.3,0.135
401.63,-0.28,0.135
401.63,-0.29,0.13
401.64,-0.295,0.115
401.64,-0.3,0.115
401.64,-0.3,0.12
401.64,-0.295,0.135
401.65,-0.28,0.15
401.65,-0.29,0.135
401.65,-0.29,0.12
401.66,-0.3,0.125
401.66,-0.29,0.125
401.66,-0.29,0.135
401.66,-0.29,0.135
401.67,-0.29,0.14
401.67,-0.3,0.12
401.67,-0.295,0.125
401.67,-0.295,0.13
401.68,-0.285,0.135
401.68,-0.28,0.135
401.68,-0.295,0.125
401.69,-0.29,0.135
401.69,-0.295,0.125
401.69,-0.3,0.125
401.69,-0.3,0.14
401.7,-0.285,0.145
401.7,-0.285,0.125
401.7,-0.31,0.12
401.71,-0.315,0.115
401.71,-0.305,0.125
401.71,-0.31,0.13
401.71,-0.315,0.12
401.72,-0.31,0.11
401.72,-0.315,0.1
401.72,-0.315,0.085
401.72,-0.32,0.095
401.73,-0.325,0.1
401.73,-0.305,0.09
401.73,-0.32,0.09
401.74,-0.325,0.07
401.74,-0.325,0.055
401.74,-0.33,0.07
401.74,-0.33,0.075
401.75,-0.33,0.075
401.75,-0.33,0.065
401.75,-0.33,0.055
401.76,-0.345,0.04
401.76,-0.34,0.04
401.76,-0.33,0.045
401.76,-0.325,0.045
401.77,-0.33,0.04
401.77,-0.34,0.015
401.77,-0.34,0.02
401.77,-0.365,0.01
401.78,-0.36,0.02
401.78,-0.34,0.015
401.78,-0.335,0.02
401.79,-0.34,-0.005
401.79,-0.35,0
401.79,-0.36,0.005
401.79,-0.35,0
401.8,-0.34,0
401.8,-0.345,0
401.8,-0.35,-0.02
401.81,-0.36,-0.02
401.81,-0.36,-0.02
401.81,-0.355,-0.01
401.81,-0.345,-0.01
401.82,-0.345,-0.015
401.82,-0.35,-0.03
401.82,-0.36,-0.035
401.82,-0.365,-0.025
401.83,-0.365,-0.025
401.83,-0.345,-0.025
401.83,-0.35,-0.025
401.84,-0.365,-0.04
401.84,-0.38,-0.05
401.84,-0.38,-0.04
401.84,-0.36,-0.02
401.85,-0.35,-0.03
401.85,-0.35,-0.035
401.85,-0.355,-0.05
401.86,-0.36,-0.06
401.86,-0.37,-0.04
401.86,-0.35,-0.035
401.86,-0.35,-0.04
401.87,-0.35,-0.04
401.87,-0.37,-0.065
401.87,-0.365,-0.06
401.88,-0.36,-0.055
401.88,-0.36,-0.045
401.88,-0.345,-0.05
401.88,-0.355,-0.05
401.89,-0.36,-0.065
401.89,-0.36,-0.07
401.89,-0.355,-0.06
401.89,-0.345,-0.055
401.9,-0.34,-0.05
401.9,-0.35,-0.065
401.9,-0.355,-0.065
401.91,-0.355,-0.095
401.91,-0.355,-0.07
401.91,-0.355,-0.065
401.91,-0.34,-0.06
401.92,-0.36,-0.055
401.92,-0.355,-0.075
401.92,-0.35,-0.085
401.92,-0.35,-0.075
401.93,-0.345,-0.065
401.93,-0.34,-0.06
401.93,-0.345,-0.065
401.94,-0.345,-0.08
401.94,-0.35,-0.075
401.94,-0.35,-0.06
401.94,-0.34,-0.05
401.95,-0.325,-0.065
401.95,-0.335,-0.07
401.95,-0.33,-0.07
401.96,-0.335,-0.075
401.96,-0.335,-0.07
401.96,-0.315,-0.05
401.96,-0.31,-0.025
401.97,-0.305,-0.025
401.97,-0.305,0.015
401.97,-0.295,0.15
401.97,-0.28,0.46
401.98,-0.25,0.855
401.98,-0.195,0.985
401.98,-0.145,0.78
401.99,0.01,0.505
401.99,0.33,0.375
401.99,0.71,0.34
401.99,0.835,0.315
402,0.63,0.28
402,0.3,0.24
402,0.11,0.18
402.01,0.075,0.1
402.01,0.105,-0.005
402.01,0.125,-0.14
402.01,0.145,-0.32
402.02,0.135,-0.57
402.02,0.145,-0.825
402.02,0.15,-1.08
402.02,0.165,-1.325
402.03,0.17,-1.585
402.03,0.17,-1.815
402.03,0.16,-2.025
402.04,0.145,-2.215
402.04,0.145,-2.35
402.04,0.15,-2.46
402.04,0.155,-2.545
402.05,0.16,-2.635
402.05,0.135,-2.745
402.05,0.12,-2.835
402.06,0.075,-2.89
402.06,0.005,-2.925
402.06,-0.05,-2.95
402.06,-0.115,-2.955
402.07,-0.17,-2.98
402.07,-0.23,-3.005
402.07,-0.305,-3.005
402.07,-0.4,-3.005
402.08,-0.47,-3
402.08,-0.485,-2.995
402.08,-0.47,-2.995
402.09,-0.455,-2.99
402.09,-0.43,-2.985
402.09,-0.43,-2.965
402.09,-0.42,-2.925
402.1,-0.415,-2.875
402.1,-0.445,-2.8
402.1,-0.435,-2.695
402.11,-0.47,-2.57
402.11,-0.48,-2.42
402.11,-0.46,-2.225
402.11,-0.42,-2.01
402.12,-0.41,-1.755
402.12,-0.395,-1.5
402.12,-0.395,-1.265
402.12,-0.395,-1.015
402.13,-0.38,-0.765
402.13,-0.375,-0.54
402.13,-0.39,-0.305
402.14,-0.4,-0.145
402.14,-0.415,0.025
402.14,-0.425,0.195
402.14,-0.425,0.365
402.15,-0.405,0.525
402.15,-0.395,0.64
402.15,-0.4,0.71
402.16,-0.41,0.75
402.16,-0.425,0.795
402.16,-0.42,0.845
402.16,-0.42,0.885
402.17,-0.425,0.925
402.17,-0.43,0.945
402.17,-0.435,0.97
402.17,-0.44,1.005
402.18,-0.425,1.045
402.18,-0.415,1.08
402.18,-0.425,1.105
402.19,-0.435,1.105
402.19,-0.445,1.135
402.19,-0.45,1.17
402.19,-0.44,1.195
402.2,-0.445,1.23
402.2,-0.46,1.25
402.2,-0.45,1.27
402.21,-0.465,1.29
402.21,-0.475,1.325
402.21,-0.47,1.355
402.21,-0.475,1.395
402.22,-0.47,1.41
402.22,-0.49,1.43
402.22,-0.49,1.465
402.22,-0.49,1.51
402.23,-0.48,1.545
402.23,-0.47,1.575
402.23,-0.48,1.61
402.24,-0.47,1.635
402.24,-0.48,1.66
402.24,-0.485,1.705
402.24,-0.475,1.745
402.25,-0.465,1.79
402.25,-0.46,1.8
402.25,-0.46,1.815
402.26,-0.45,1.845
402.26,-0.455,1.87
402.26,-0.435,1.91
402.26,-0.42,1.92
402.27,-0.415,1.93
402.27,-0.415,1.935
402.27,-0.405,1.935
402.27,-0.41,1.935
402.28,-0.385,1.95
402.28,-0.37,1.955
402.28,-0.365,1.935
402.29,-0.36,1.915
402.29,-0.35,1.895
402.29,-0.34,1.865
402.29,-0.325,1.83
402.3,-0.305,1.79
402.3,-0.3,1.745
402.3,-0.285,1.695
402.31,-0.285,1.625
402.31,-0.265,1.56
402.31,-0.245,1.51
402.31,-0.225,1.45
402.32,-0.2,1.375
402.32,-0.205,1.28
402.32,-0.21,1.22
402.32,-0.21,1.16
402.33,-0.2,1.09
402.33,-0.18,1.02
402.33,-0.175,0.945
402.34,-0.185,0.875
402.34,-0.18,0.805
402.34,-0.18,0.755
402.34,-0.155,0.705
402.35,-0.155,0.66
402.35,-0.17,0.61
402.35,-0.17,0.545
402.36,-0.185,0.495
402.36,-0.195,0.47
402.36,-0.175,0.44
402.36,-0.175,0.405
402.37,-0.185,0.37
402.37,-0.19,0.33
402.37,-0.22,0.3
402.38,-0.225,0.285
402.38,-0.215,0.265
402.38,-0.2,0.26
402.38,-0.225,0.235
402.39,-0.23,0.205
402.39,-0.245,0.195
402.39,-0.255,0.175
402.39,-0.255,0.18
402.4,-0.235,0.185
402.4,-0.245,0.16
402.4,-0.25,0.16
402.41,-0.265,0.145
402.41,-0.27,0.14
402.41,-0.255,0.16
402.41,-0.25,0.145
402.42,-0.255,0.165
402.42,-0.25,0.14
402.42,-0.27,0.14
402.42,-0.28,0.145
402.43,-0.285,0.14
402.43,-0.265,0.135
402.43,-0.265,0.14
402.44,-0.27,0.125
402.44,-0.275,0.115
402.44,-0.275,0.13
402.44,-0.265,0.14
402.45,-0.255,0.14
402.45,-0.265,0.135
402.45,-0.28,0.125
402.46,-0.28,0.115
402.46,-0.285,0.12
402.46,-0.28,0.145
402.46,-0.26,0.155
402.47,-0.275,0.14
402.47,-0.295,0.13
402.47,-0.295,0.12
402.47,-0.29,0.135
402.48,-0.28,0.13
402.48,-0.26,0.14
402.48,-0.28,0.125
402.49,-0.29,0.105
402.49,-0.285,0.11
402.49,-0.28,0.105
402.49,-0.275,0.12
402.5,-0.255,0.11
402.5,-0.275,0.095
402.5,-0.275,0.085
402.51,-0.285,0.08
402.51,-0.295,0.08
402.51,-0.29,0.085
402.51,-0.285,0.08
402.52,-0.28,0.08
402.52,-0.295,0.06
402.52,-0.295,0.05
402.52,-0.29,0.05
402.53,-0.285,0.065
402.53,-0.285,0.055
402.53,-0.295,0.04
402.54,-0.32,0.025
402.54,-0.315,0.01
402.54,-0.315,0.015
402.54,-0.31,0.015
402.55,-0.31,0.015
402.55,-0.305,0.015
402.55,-0.305,0.005
402.56,-0.31,-0.005
402.56,-0.315,0.01
402.56,-0.305,0.01
402.56,-0.29,0.01
402.57,-0.31,-0.005
402.57,-0.31,-0.025
402.57,-0.31,-0.025
402.57,-0.335,-0.025
402.58,-0.32,-0.01
402.58,-0.305,-0.025
402.58,-0.31,-0.01
402.59,-0.325,-0.03
402.59,-0.33,-0.045
402.59,-0.325,-0.025
402.59,-0.3,-0.03
402.6,-0.275,-0.03
402.6,-0.29,-0.03
402.6,-0.3,-0.045
402.61,-0.315,-0.06
402.61,-0.305,-0.06
402.61,-0.31,-0.055
402.61,-0.31,-0.045
402.62,-0.31,-0.055
402.62,-0.315,-0.06
402.62,-0.325,-0.07
402.62,-0.345,-0.06
402.63,-0.345,-0.065
402.63,-0.325,-0.065
402.63,-0.32,-0.065
402.64,-0.305,-0.08
402.64,-0.315,-0.085
402.64,-0.295,-0.08
402.64,-0.29,-0.07
402.65,-0.285,-0.06
402.65,-0.295,-0.07
402.65,-0.305,-0.085
402.66,-0.325,-0.1
402.66,-0.325,-0.08
402.66,-0.31,-0.07
402.66,-0.295,-0.07
402.67,-0.295,-0.075
402.67,-0.3,-0.095
402.67,-0.295,-0.1
402.67,-0.305,-0.09
402.68,-0.305,-0.07
402.68,-0.31,-0.075
402.68,-0.32,-0.09
402.69,-0.31,-0.095
402.69,-0.305,-0.11
402.69,-0.305,-0.1
402.69,-0.305,-0.1
402.7,-0.305,-0.095
402.7,-0.325,-0.085
402.7,-0.325,-0.1
402.71,-0.335,-0.11
402.71,-0.335,-0.105
402.71,-0.32,-0.08
402.71,-0.305,-0.1
402.72,-0.305,-0.09
402.72,-0.31,-0.11
402.72,-0.31,-0.105
402.72,-0.305,-0.105
402.73,-0.285,-0.085
402.73,-0.265,-0.075
402.73,-0.28,-0.085
402.74,-0.285,-0.095
402.74,-0.3,-0.1
402.74,-0.295,-0.085
402.74,-0.29,-0.07
402.75,-0.285,-0.05
402.75,-0.285,-0.035
402.75,-0.27,0.01
402.76,-0.25,0.155
402.76,-0.23,0.505
402.76,-0.205,0.845
402.76,-0.155,0.86
402.77,-0.1,0.64
402.77,0.095,0.405
402.77,0.45,0.315
402.77,0.795,0.3
402.78,0.825,0.27
402.78,0.56,0.22
402.78,0.265,0.185
402.79,0.145,0.12
402.79,0.145,0.035
402.79,0.17,-0.085
402.79,0.19,-0.235
402.8,0.18,-0.425
402.8,0.205,-0.67
402.8,0.215,-0.93
402.81,0.215,-1.195
402.81,0.225,-1.44
402.81,0.215,-1.71
402.81,0.21,-1.94
402.82,0.18,-2.12
402.82,0.17,-2.29
402.82,0.17,-2.42
402.82,0.18,-2.515
402.83,0.18,-2.58
402.83,0.18,-2.675
402.83,0.165,-2.765
402.84,0.135,-2.86
402.84,0.11,-2.92
402.84,0.04,-2.95
402.84,-0.03,-2.95
402.85,-0.08,-2.97
402.85,-0.16,-3
402.85,-0.215,-3.01
402.86,-0.315,-3.02
402.86,-0.39,-3.01
402.86,-0.435,-2.995
402.86,-0.42,-3
402.87,-0.42,-3
402.87,-0.42,-2.995
402.87,-0.43,-2.99
402.88,-0.435,-2.935
402.88,-0.465,-2.875
402.88,-0.485,-2.81
402.88,-0.51,-2.715
402.89,-0.545,-2.6
402.89,-0.54,-2.47
402.89,-0.535,-2.32
402.89,-0.505,-2.105
402.9,-0.48,-1.89
402.9,-0.455,-1.64
402.9,-0.42,-1.41
402.91,-0.41,-1.17
402.91,-0.39,-0.93
402.91,-0.39,-0.705
402.91,-0.375,-0.49
402.92,-0.36,-0.285
402.92,-0.365,-0.11
402.92,-0.39,0.045
402.92,-0.405,0.195
402.93,-0.41,0.35
402.93,-0.395,0.47
402.93,-0.395,0.595
402.94,-0.375,0.68
402.94,-0.375,0.74
402.94,-0.365,0.81
402.94,-0.34,0.85
402.95,-0.305,0.88
402.95,-0.305,0.895
402.95,-0.3,0.925
402.96,-0.3,0.94
402.96,-0.295,0.96
402.96,-0.275,0.975
402.96,-0.255,1.015
402.97,-0.27,1.03
402.97,-0.28,1.045
402.97,-0.3,1.065
402.97,-0.29,1.08
402.98,-0.255,1.11
402.98,-0.235,1.125
402.98,-0.225,1.135
402.99,-0.24,1.14
402.99,-0.25,1.165
402.99,-0.26,1.19
402.99,-0.245,1.23
403,-0.235,1.27
403,-0.255,1.305
403,-0.265,1.33
403.01,-0.27,1.345
403.01,-0.295,1.37
403.01,-0.295,1.415
403.01,-0.3,1.45
403.02,-0.33,1.48
403.02,-0.35,1.495
403.02,-0.365,1.525
403.02,-0.355,1.56
403.03,-0.335,1.585
403.03,-0.31,1.62
403.03,-0.315,1.63
403.04,-0.315,1.64
403.04,-0.315,1.665
403.04,-0.32,1.695
403.04,-0.295,1.725
403.05,-0.29,1.735
403.05,-0.3,1.76
403.05,-0.305,1.76
403.06,-0.305,1.77
403.06,-0.295,1.785
403.06,-0.29,1.81
403.06,-0.275,1.825
403.07,-0.26,1.825
403.07,-0.275,1.81
403.07,-0.27,1.805
403.07,-0.26,1.8
403.08,-0.25,1.8
403.08,-0.235,1.775
403.08,-0.215,1.755
403.09,-0.225,1.72
403.09,-0.21,1.69
403.09,-0.185,1.665
403.09,-0.16,1.64
403.1,-0.155,1.585
403.1,-0.15,1.54
403.1,-0.155,1.475
403.11,-0.145,1.415
403.11,-0.13,1.355
403.11,-0.12,1.315
403.11,-0.095,1.25
403.12,-0.085,1.185
403.12,-0.09,1.115
403.12,-0.085,1.04
403.12,-0.085,0.98
403.13,-0.075,0.93
403.13,-0.07,0.875
403.13,-0.08,0.795
403.14,-0.08,0.725
403.14,-0.1,0.66
403.14,-0.115,0.61
403.14,-0.095,0.56
403.15,-0.09,0.525
403.15,-0.095,0.48
403.15,-0.11,0.42
403.16,-0.115,0.395
403.16,-0.12,0.365
403.16,-0.11,0.34
403.16,-0.11,0.3
403.17,-0.12,0.28
403.17,-0.135,0.235
403.17,-0.155,0.215
403.17,-0.16,0.2
403.18,-0.15,0.2
403.18,-0.15,0.19
403.18,-0.145,0.16
403.19,-0.15,0.145
403.19,-0.165,0.125
403.19,-0.175,0.11
403.19,-0.165,0.12
403.2,-0.16,0.11
403.2,-0.165,0.1
403.2,-0.17,0.08
403.21,-0.18,0.075
403.21,-0.185,0.085
403.21,-0.185,0.08
403.21,-0.175,0.085
403.22,-0.185,0.08
403.22,-0.19,0.06
403.22,-0.205,0.055
403.22,-0.2,0.065
403.23,-0.185,0.085
403.23,-0.185,0.085
403.23,-0.19,0.07
403.24,-0.205,0.065
403.24,-0.215,0.05
403.24,-0.21,0.055
403.24,-0.2,0.07
403.25,-0.195,0.07
403.25,-0.205,0.06
403.25,-0.21,0.055
403.26,-0.22,0.055
403.26,-0.22,0.06
403.26,-0.205,0.06
403.26,-0.2,0.06
403.27,-0.2,0.075
403.27,-0.22,0.05
403.27,-0.22,0.05
403.27,-0.225,0.06
403.28,-0.22,0.065
403.28,-0.205,0.065
403.28,-0.215,0.055
403.29,-0.225,0.04
403.29,-0.24,0.055
403.29,-0.245,0.035
403.29,-0.23,0.055
403.3,-0.215,0.06
403.3,-0.22,0.045
403.3,-0.235,0.035
403.31,-0.245,0.035
403.31,-0.255,0.04
403.31,-0.245,0.045
403.31,-0.23,0.04
403.32,-0.235,0.03
403.32,-0.235,0.02
403.32,-0.245,0.01
403.32,-0.26,0.025
403.33,-0.25,0.03
403.33,-0.25,0.02
403.33,-0.245,0.025
403.34,-0.255,-0.005
403.34,-0.26,-0.005
403.34,-0.26,-0.005
403.34,-0.265,0.005
403.35,-0.26,-0.005
403.35,-0.26,-0.005
403.35,-0.265,-0.025
403.36,-0.275,-0.035
403.36,-0.28,-0.035
403.36,-0.27,-0.015
403.36,-0.25,-0.03
403.37,-0.26,-0.045
403.37,-0.275,-0.045
403.37,-0.29,-0.055
403.38,-0.285,-0.045
403.38,-0.28,-0.045
403.38,-0.265,-0.04
403.38,-0.275,-0.055
403.39,-0.285,-0.06
403.39,-0.28,-0.075
403.39,-0.295,-0.08
403.39,-0.27,-0.055
403.4,-0.265,-0.055
403.4,-0.28,-0.07
403.4,-0.29,-0.08
403.41,-0.29,-0.095
403.41,-0.295,-0.08
403.41,-0.29,-0.07
403.41,-0.285,-0.085
403.42,-0.285,-0.09
403.42,-0.305,-0.105
403.42,-0.32,-0.105
403.42,-0.31,-0.095
403.43,-0.3,-0.09
403.43,-0.29,-0.085
403.43,-0.29,-0.1
403.44,-0.31,-0.1
403.44,-0.32,-0.115
403.44,-0.32,-0.11
403.44,-0.32,-0.1
403.45,-0.31,-0.105
403.45,-0.32,-0.12
403.45,-0.335,-0.125
403.46,-0.34,-0.12
403.46,-0.345,-0.115
403.46,-0.345,-0.095
403.46,-0.35,-0.105
403.47,-0.36,-0.1
403.47,-0.355,-0.12
403.47,-0.35,-0.12
403.47,-0.35,-0.12
403.48,-0.32,-0.11
403.48,-0.305,-0.11
403.48,-0.32,-0.1
403.49,-0.325,-0.13
403.49,-0.335,-0.135
403.49,-0.34,-0.12
403.49,-0.335,-0.115
403.5,-0.32,-0.115
403.5,-0.335,-0.12
403.5,-0.335,-0.125
403.51,-0.345,-0.13
403.51,-0.345,-0.12
403.51,-0.335,-0.11
403.51,-0.33,-0.12
403.52,-0.325,-0.12
403.52,-0.31,-0.125
403.52,-0.31,-0.13
403.52,-0.31,-0.13
403.53,-0.295,-0.115
403.53,-0.285,-0.125
403.53,-0.285,-0.125
403.54,-0.305,-0.135
403.54,-0.33,-0.135
403.54,-0.35,-0.135
403.54,-0.36,-0.115
403.55,-0.345,-0.115
403.55,-0.32,-0.12
403.55,-0.295,-0.13
403.56,-0.285,-0.135
403.56,-0.27,-0.12
403.56,-0.28,-0.1
403.56,-0.29,-0.1
403.57,-0.295,-0.1
403.57,-0.3,-0.1
403.57,-0.295,-0.095
403.57,-0.27,-0.065
403.58,-0.255,0.01
403.58,-0.23,0.22
403.58,-0.205,0.575
403.59,-0.16,0.82
403.59,-0.145,0.74
403.59,-0.095,0.52
403.59,0.08,0.38
403.6,0.42,0.32
403.6,0.74,0.285
403.6,0.77,0.25
403.61,0.54,0.215
403.61,0.29,0.18
403.61,0.19,0.155
403.61,0.18,0.095
403.62,0.18,0
403.62,0.16,-0.16
403.62,0.155,-0.345
403.62,0.165,-0.55
403.63,0.21,-0.77
403.63,0.25,-1.005
403.63,0.265,-1.28
403.64,0.245,-1.545
403.64,0.23,-1.785
403.64,0.235,-1.995
403.64,0.255,-2.145
403.65,0.275,-2.31
403.65,0.27,-2.45
403.65,0.245,-2.55
403.66,0.22,-2.64
403.66,0.185,-2.725
403.66,0.155,-2.805
403.66,0.135,-2.885
403.67,0.095,-2.93
403.67,0.03,-2.965
403.67,-0.04,-2.985
403.67,-0.095,-2.99
403.68,-0.135,-2.985
403.68,-0.16,-3.01
403.68,-0.225,-3.01
403.69,-0.325,-3.025
403.69,-0.42,-3.025
403.69,-0.46,-3.01
403.69,-0.465,-2.995
403.7,-0.445,-2.995
403.7,-0.425,-2.985
403.7,-0.425,-2.985
403.71,-0.43,-2.955
403.71,-0.43,-2.92
403.71,-0.435,-2.83
403.71,-0.45,-2.745
403.72,-0.465,-2.63
403.72,-0.485,-2.49
403.72,-0.48,-2.355
403.72,-0.48,-2.185
403.73,-0.46,-1.965
403.73,-0.425,-1.725
403.73,-0.4,-1.495
403.74,-0.39,-1.285
403.74,-0.395,-1.06
403.74,-0.385,-0.83
403.74,-0.355,-0.62
403.75,-0.34,-0.395
403.75,-0.35,-0.21
403.75,-0.365,-0.06
403.76,-0.38,0.105
403.76,-0.39,0.245
403.76,-0.385,0.4
403.76,-0.36,0.535
403.77,-0.345,0.635
403.77,-0.335,0.69
403.77,-0.335,0.75
403.77,-0.32,0.805
403.78,-0.315,0.85
403.78,-0.295,0.895
403.78,-0.29,0.925
403.79,-0.295,0.94
403.79,-0.3,0.975
403.79,-0.29,1.035
403.79,-0.275,1.065
403.8,-0.285,1.1
403.8,-0.275,1.115
403.8,-0.285,1.125
403.81,-0.285,1.14
403.81,-0.285,1.17
403.81,-0.265,1.2
403.81,-0.25,1.22
403.82,-0.25,1.23
403.82,-0.26,1.255
403.82,-0.26,1.28
403.82,-0.255,1.3
403.83,-0.245,1.34
403.83,-0.23,1.355
403.83,-0.235,1.365
403.84,-0.255,1.39
403.84,-0.25,1.4
403.84,-0.26,1.43
403.84,-0.255,1.47
403.85,-0.24,1.495
403.85,-0.235,1.52
403.85,-0.24,1.535
403.86,-0.245,1.575
403.86,-0.265,1.635
403.86,-0.265,1.68
403.86,-0.255,1.705
403.87,-0.265,1.72
403.87,-0.27,1.74
403.87,-0.285,1.775
403.88,-0.295,1.8
403.88,-0.285,1.825
403.88,-0.27,1.845
403.88,-0.265,1.855
403.89,-0.28,1.87
403.89,-0.29,1.87
403.89,-0.27,1.89
403.89,-0.265,1.895
403.9,-0.255,1.89
403.9,-0.25,1.89
403.9,-0.245,1.875
403.91,-0.25,1.85
403.91,-0.24,1.845
403.91,-0.23,1.83
403.91,-0.215,1.8
403.92,-0.2,1.765
403.92,-0.21,1.725
403.92,-0.22,1.665
403.92,-0.205,1.635
403.93,-0.19,1.59
403.93,-0.18,1.53
403.93,-0.18,1.465
403.94,-0.165,1.415
403.94,-0.17,1.34
403.94,-0.16,1.29
403.94,-0.155,1.235
403.95,-0.135,1.165
403.95,-0.13,1.095
403.95,-0.13,1.01
403.96,-0.14,0.945
403.96,-0.145,0.875
403.96,-0.145,0.83
403.96,-0.125,0.76
403.97,-0.11,0.695
403.97,-0.125,0.64
403.97,-0.15,0.575
403.97,-0.135,0.535
403.98,-0.15,0.49
403.98,-0.145,0.455
403.98,-0.145,0.41
403.99,-0.16,0.37
403.99,-0.18,0.335
403.99,-0.195,0.31
403.99,-0.175,0.285
404,-0.195,0.27
404,-0.185,0.24
404,-0.2,0.2
404.01,-0.225,0.19
404.01,-0.22,0.175
404.01,-0.21,0.16
404.01,-0.2,0.155
404.02,-0.21,0.15
404.02,-0.225,0.13
404.02,-0.235,0.105
404.02,-0.22,0.12
404.03,-0.215,0.12
404.03,-0.225,0.115
404.03,-0.22,0.11
404.04,-0.235,0.1
404.04,-0.25,0.09
404.04,-0.245,0.09
404.04,-0.25,0.105
404.05,-0.23,0.105
404.05,-0.24,0.095
404.05,-0.25,0.095
404.06,-0.255,0.08
404.06,-0.25,0.09
404.06,-0.245,0.11
404.06,-0.245,0.115
404.07,-0.245,0.1
404.07,-0.26,0.095
404.07,-0.265,0.085
404.07,-0.26,0.105
404.08,-0.255,0.11
404.08,-0.255,0.105
404.08,-0.26,0.105
404.09,-0.265,0.1
404.09,-0.265,0.09
404.09,-0.275,0.105
404.09,-0.255,0.12
404.1,-0.26,0.115
404.1,-0.26,0.1
404.1,-0.27,0.1
404.11,-0.27,0.09
404.11,-0.28,0.09
404.11,-0.27,0.095
404.11,-0.27,0.105
404.12,-0.275,0.1
404.12,-0.29,0.085
404.12,-0.3,0.085
404.12,-0.29,0.085
404.13,-0.285,0.085
404.13,-0.26,0.095
404.13,-0.275,0.085
404.14,-0.285,0.075
404.14,-0.29,0.06
404.14,-0.295,0.07
404.14,-0.285,0.075
404.15,-0.28,0.075
404.15,-0.28,0.07
404.15,-0.305,0.05
404.16,-0.295,0.04
404.16,-0.29,0.04
404.16,-0.295,0.05
404.16,-0.305,0.04
404.17,-0.28,0.035
404.17,-0.29,0.01
404.17,-0.31,0.01
404.17,-0.3,0.01
404.18,-0.29,0.015
404.18,-0.29,0.02
404.18,-0.295,0.015
404.19,-0.3,-0.005
404.19,-0.31,-0.02
404.19,-0.31,-0.01
404.19,-0.305,0
404.2,-0.295,-0.01
404.2,-0.295,-0.015
404.2,-0.305,-0.03
404.21,-0.315,-0.04
404.21,-0.32,-0.03
404.21,-0.31,-0.035
404.21,-0.305,-0.035
404.22,-0.3,-0.045
404.22,-0.315,-0.055
404.22,-0.325,-0.06
404.22,-0.325,-0.055
404.23,-0.32,-0.05
404.23,-0.32,-0.05
404.23,-0.325,-0.06
404.24,-0.33,-0.065
404.24,-0.345,-0.07
404.24,-0.325,-0.07
404.24,-0.315,-0.055
404.25,-0.315,-0.06
404.25,-0.3,-0.065
404.25,-0.32,-0.07
404.26,-0.33,-0.08
404.26,-0.33,-0.08
404.26,-0.32,-0.07
404.26,-0.31,-0.065
404.27,-0.305,-0.075
404.27,-0.32,-0.085
404.27,-0.33,-0.09
404.27,-0.33,-0.085
404.28,-0.32,-0.08
404.28,-0.315,-0.08
404.28,-0.315,-0.075
404.29,-0.32,-0.09
404.29,-0.325,-0.1
404.29,-0.335,-0.095
404.29,-0.325,-0.065
404.3,-0.315,-0.085
404.3,-0.32,-0.09
404.3,-0.315,-0.095
404.31,-0.335,-0.105
404.31,-0.325,-0.095
404.31,-0.33,-0.08
404.31,-0.315,-0.1
404.32,-0.315,-0.09
404.32,-0.325,-0.1
404.32,-0.335,-0.11
404.32,-0.335,-0.105
404.33,-0.335,-0.09
404.33,-0.31,-0.09
404.33,-0.32,-0.095
404.34,-0.315,-0.095
404.34,-0.325,-0.1
404.34,-0.325,-0.1
404.34,-0.325,-0.085
404.35,-0.31,-0.095
404.35,-0.315,-0.1
404.35,-0.315,-0.1
404.36,-0.33,-0.105
404.36,-0.32,-0.105
404.36,-0.32,-0.085
404.36,-0.31,-0.095
404.37,-0.315,-0.1
404.37,-0.31,-0.11
404.37,-0.335,-0.12
404.38,-0.32,-0.1
404.38,-0.31,-0.095
404.38,-0.295,-0.095
404.38,-0.3,-0.085
404.39,-0.305,-0.085
404.39,-0.31,-0.085
404.39,-0.3,-0.065
404.39,-0.295,-0.04
404.4,-0.27,0.01
404.4,-0.255,0.185
404.4,-0.25,0.53
404.41,-0.235,0.79
404.41,-0.2,0.72
404.41,-0.125,0.51
404.41,0.07,0.365
404.42,0.405,0.33
404.42,0.655,0.285
404.42,0.635,0.26
404.42,0.4,0.245
404.43,0.18,0.235
404.43,0.09,0.215
404.43,0.085,0.16
404.44,0.115,0.075
404.44,0.125,-0.035
404.44,0.145,-0.17
404.44,0.155,-0.33
404.45,0.18,-0.51
404.45,0.205,-0.72
404.45,0.22,-0.93
404.46,0.215,-1.17
404.46,0.215,-1.38
404.46,0.22,-1.57
404.46,0.23,-1.735
404.47,0.235,-1.91
404.47,0.23,-2.07
404.47,0.25,-2.17
404.47,0.25,-2.29
404.48,0.25,-2.41
404.48,0.24,-2.56
404.48,0.235,-2.685
404.49,0.205,-2.78
404.49,0.15,-2.825
404.49,0.09,-2.86
404.49,0.035,-2.895
404.5,0,-2.92
404.5,-0.045,-2.935
404.5,-0.12,-2.965
404.51,-0.21,-2.98
404.51,-0.29,-2.98
404.51,-0.33,-2.975
404.51,-0.335,-2.965
404.52,-0.335,-2.97
404.52,-0.325,-2.975
404.52,-0.3,-2.97
404.52,-0.29,-2.94
404.53,-0.305,-2.91
404.53,-0.305,-2.87
404.53,-0.345,-2.78
404.54,-0.37,-2.715
404.54,-0.395,-2.595
404.54,-0.405,-2.455
404.54,-0.405,-2.305
404.55,-0.395,-2.12
404.55,-0.38,-1.915
404.55,-0.39,-1.695
404.56,-0.395,-1.475
404.56,-0.405,-1.25
404.56,-0.395,-1.03
404.56,-0.39,-0.815
404.57,-0.4,-0.605
404.57,-0.415,-0.415
404.57,-0.42,-0.24
404.57,-0.44,-0.075
404.58,-0.45,0.09
404.58,-0.46,0.225
404.58,-0.455,0.34
404.59,-0.465,0.455
404.59,-0.455,0.54
404.59,-0.45,0.61
404.59,-0.45,0.665
404.6,-0.445,0.71
404.6,-0.44,0.735
404.6,-0.445,0.77
404.61,-0.445,0.805
404.61,-0.435,0.84
404.61,-0.42,0.895
404.61,-0.415,0.92
404.62,-0.425,0.95
404.62,-0.425,0.975
404.62,-0.435,1
404.62,-0.425,1.03
404.63,-0.41,1.06
404.63,-0.415,1.075
404.63,-0.425,1.085
404.64,-0.43,1.08
404.64,-0.455,1.1
404.64,-0.435,1.13
404.64,-0.42,1.17
404.65,-0.4,1.19
404.65,-0.405,1.215
404.65,-0.415,1.22
404.66,-0.415,1.235
404.66,-0.405,1.26
404.66,-0.405,1.29
404.66,-0.415,1.31
404.67,-0.42,1.33
404.67,-0.42,1.34
404.67,-0.435,1.36
404.67,-0.43,1.4
404.68,-0.425,1.45
404.68,-0.415,1.485
404.68,-0.415,1.515
404.69,-0.425,1.54
404.69,-0.435,1.57
404.69,-0.445,1.61
404.69,-0.445,1.645
404.7,-0.45,1.665
404.7,-0.46,1.685
404.7,-0.455,1.69
404.71,-0.47,1.71
404.71,-0.465,1.735
404.71,-0.45,1.755
404.71,-0.45,1.77
404.72,-0.445,1.765
404.72,-0.45,1.76
404.72,-0.445,1.765
404.72,-0.435,1.765
404.73,-0.425,1.765
404.73,-0.41,1.76
404.73,-0.4,1.745
404.74,-0.4,1.725
404.74,-0.4,1.705
404.74,-0.395,1.685
404.74,-0.365,1.675
404.75,-0.345,1.63
404.75,-0.34,1.595
404.75,-0.335,1.55
404.76,-0.335,1.48
404.76,-0.315,1.44
404.76,-0.29,1.395
404.76,-0.265,1.34
404.77,-0.27,1.28
404.77,-0.28,1.2
404.77,-0.27,1.13
404.77,-0.26,1.07
404.78,-0.235,1.025
404.78,-0.22,0.965
404.78,-0.205,0.9
404.79,-0.215,0.825
404.79,-0.225,0.76
404.79,-0.22,0.715
404.79,-0.205,0.67
404.8,-0.2,0.615
404.8,-0.19,0.565
404.8,-0.195,0.515
404.81,-0.22,0.465
404.81,-0.22,0.425
404.81,-0.205,0.415
404.81,-0.195,0.37
404.82,-0.21,0.325
404.82,-0.23,0.295
404.82,-0.245,0.27
404.82,-0.24,0.24
404.83,-0.225,0.225
404.83,-0.23,0.215
404.83,-0.23,0.19
404.84,-0.245,0.17
404.84,-0.255,0.14
404.84,-0.26,0.14
404.84,-0.255,0.15
404.85,-0.245,0.15
404.85,-0.245,0.13
404.85,-0.255,0.105
404.86,-0.275,0.105
404.86,-0.265,0.105
404.86,-0.25,0.12
404.86,-0.245,0.12
404.87,-0.245,0.115
404.87,-0.255,0.085
404.87,-0.275,0.075
404.88,-0.27,0.1
404.88,-0.25,0.1
404.88,-0.255,0.095
404.88,-0.255,0.095
404.89,-0.265,0.075
404.89,-0.28,0.08
404.89,-0.27,0.1
404.89,-0.265,0.1
404.9,-0.255,0.105
404.9,-0.26,0.1
404.9,-0.265,0.085
404.91,-0.285,0.075
404.91,-0.28,0.105
404.91,-0.265,0.1
404.91,-0.26,0.105
404.92,-0.26,0.09
404.92,-0.28,0.085
404.92,-0.28,0.08
404.92,-0.275,0.095
404.93,-0.265,0.105
404.93,-0.265,0.105
404.93,-0.28,0.105
404.94,-0.285,0.1
404.94,-0.285,0.075
404.94,-0.285,0.095
404.94,-0.28,0.105
404.95,-0.27,0.1
404.95,-0.27,0.085
404.95,-0.3,0.085
404.96,-0.3,0.075
404.96,-0.305,0.085
404.96,-0.285,0.09
404.96,-0.275,0.085
404.97,-0.29,0.065
404.97,-0.295,0.055
404.97,-0.29,0.06
404.97,-0.3,0.06
404.98,-0.295,0.06
404.98,-0.285,0.06
404.98,-0.285,0.05
404.99,-0.295,0.045
404.99,-0.32,0.03
404.99,-0.315,0.035
404.99,-0.3,0.045
405,-0.29,0.05
405,-0.305,0.04
405,-0.305,0.015
405.01,-0.31,0.015
405.01,-0.315,0.01
405.01,-0.31,0.01
405.01,-0.31,0.005
405.02,-0.3,0.01
405.02,-0.32,0
405.02,-0.32,-0.02
405.02,-0.325,-0.005
405.03,-0.31,0.01
405.03,-0.31,0
405.03,-0.31,-0.005
405.04,-0.32,-0.04
405.04,-0.325,-0.035
405.04,-0.325,-0.03
405.04,-0.32,-0.015
405.05,-0.315,-0.025
405.05,-0.32,-0.025
405.05,-0.325,-0.045
405.06,-0.325,-0.045
405.06,-0.315,-0.03
405.06,-0.315,-0.025
405.06,-0.31,-0.04
405.07,-0.32,-0.035
405.07,-0.335,-0.05
405.07,-0.33,-0.05
405.07,-0.335,-0.055
405.08,-0.325,-0.04
405.08,-0.32,-0.055
405.08,-0.32,-0.065
405.09,-0.33,-0.07
405.09,-0.34,-0.075
405.09,-0.345,-0.065
405.09,-0.325,-0.055
405.1,-0.325,-0.065
405.1,-0.325,-0.075
405.1,-0.33,-0.08
405.11,-0.34,-0.085
405.11,-0.34,-0.075
405.11,-0.325,-0.075
405.11,-0.325,-0.08
405.12,-0.335,-0.08
405.12,-0.335,-0.08
405.12,-0.345,-0.105
405.12,-0.34,-0.085
405.13,-0.325,-0.075
405.13,-0.32,-0.09
405.13,-0.315,-0.09
405.14,-0.33,-0.1
405.14,-0.335,-0.1
405.14,-0.325,-0.095
405.14,-0.325,-0.07
405.15,-0.325,-0.095
405.15,-0.32,-0.09
405.15,-0.33,-0.1
405.16,-0.34,-0.11
405.16,-0.34,-0.105
405.16,-0.315,-0.09
405.16,-0.32,-0.085
405.17,-0.325,-0.095
405.17,-0.325,-0.1
405.17,-0.34,-0.115
405.17,-0.33,-0.095
405.18,-0.325,-0.1
405.18,-0.315,-0.085
405.18,-0.32,-0.1
405.19,-0.31,-0.115
405.19,-0.33,-0.105
405.19,-0.33,-0.105
405.19,-0.325,-0.08
405.2,-0.305,-0.095
405.2,-0.305,-0.09
405.2,-0.32,-0.105
405.21,-0.325,-0.11
405.21,-0.32,-0.1
405.21,-0.305,-0.08
405.21,-0.295,-0.085
405.22,-0.295,-0.085
405.22,-0.305,-0.085
405.22,-0.31,-0.07
405.22,-0.3,-0.03
405.23,-0.28,0.055
405.23,-0.265,0.25
405.23,-0.235,0.6
405.24,-0.215,0.88
405.24,-0.18,0.84
405.24,-0.11,0.6
405.24,0.07,0.43
405.25,0.405,0.35
405.25,0.73,0.295
405.25,0.8,0.23
405.26,0.575,0.19
405.26,0.29,0.145
405.26,0.125,0.1
405.26,0.1,0
405.27,0.11,-0.1
405.27,0.105,-0.24
405.27,0.09,-0.38
405.27,0.095,-0.535
405.28,0.1,-0.71
405.28,0.12,-0.895
405.28,0.13,-1.05
405.29,0.145,-1.19
405.29,0.135,-1.32
405.29,0.135,-1.44
405.29,0.13,-1.575
405.3,0.13,-1.775
405.3,0.13,-1.965
405.3,0.125,-2.16
405.31,0.125,-2.3
405.31,0.125,-2.415
405.31,0.105,-2.49
405.31,0.1,-2.605
405.32,0.07,-2.7
405.32,0.025,-2.79
405.32,-0.04,-2.835
405.32,-0.1,-2.875
405.33,-0.145,-2.885
405.33,-0.185,-2.9
405.33,-0.24,-2.925
405.34,-0.33,-2.955
405.34,-0.415,-2.96
405.34,-0.495,-2.955
405.34,-0.515,-2.95
405.35,-0.475,-2.945
405.35,-0.44,-2.935
405.35,-0.405,-2.93
405.36,-0.395,-2.91
405.36,-0.39,-2.855
405.36,-0.38,-2.77
405.36,-0.375,-2.685
405.37,-0.385,-2.565
405.37,-0.395,-2.435
405.37,-0.415,-2.28
405.38,-0.415,-2.075
405.38,-0.39,-1.87
405.38,-0.365,-1.645
405.38,-0.34,-1.415
405.39,-0.315,-1.19
405.39,-0.31,-0.97
405.39,-0.335,-0.76
405.39,-0.35,-0.565
405.4,-0.345,-0.395
405.4,-0.37,-0.215
405.4,-0.39,-0.075
405.41,-0.395,0.08
405.41,-0.385,0.235
405.41,-0.385,0.385
405.41,-0.37,0.495
405.42,-0.375,0.57
405.42,-0.37,0.635
405.42,-0.375,0.68
405.42,-0.37,0.735
405.43,-0.37,0.77
405.43,-0.36,0.8
405.43,-0.36,0.83
405.44,-0.36,0.86
405.44,-0.375,0.89
405.44,-0.375,0.915
405.44,-0.375,0.95
405.45,-0.365,0.975
405.45,-0.355,0.985
405.45,-0.36,1
405.46,-0.365,1.025
405.46,-0.38,1.05
405.46,-0.365,1.075
405.46,-0.355,1.095
405.47,-0.365,1.12
405.47,-0.37,1.13
405.47,-0.38,1.165
405.47,-0.385,1.185
405.48,-0.375,1.225
405.48,-0.365,1.255
405.48,-0.365,1.275
405.49,-0.365,1.295
405.49,-0.375,1.325
405.49,-0.375,1.36
405.49,-0.37,1.385
405.5,-0.37,1.415
405.5,-0.355,1.445
405.5,-0.36,1.465
405.51,-0.36,1.485
405.51,-0.365,1.535
405.51,-0.35,1.56
405.51,-0.335,1.59
405.52,-0.34,1.615
405.52,-0.34,1.635
405.52,-0.35,1.655
405.52,-0.345,1.68
405.53,-0.335,1.715
405.53,-0.33,1.735
405.53,-0.325,1.745
405.54,-0.31,1.755
405.54,-0.33,1.77
405.54,-0.32,1.795
405.54,-0.31,1.815
405.55,-0.285,1.82
405.55,-0.285,1.82
405.55,-0.295,1.815
405.56,-0.3,1.81
405.56,-0.285,1.815
405.56,-0.265,1.815
405.56,-0.255,1.795
405.57,-0.25,1.775
405.57,-0.245,1.75
405.57,-0.25,1.73
405.57,-0.25,1.695
405.58,-0.22,1.675
405.58,-0.21,1.625
405.58,-0.2,1.6
405.59,-0.205,1.54
405.59,-0.22,1.485
405.59,-0.2,1.445
405.59,-0.185,1.405
405.6,-0.165,1.35
405.6,-0.165,1.295
405.6,-0.165,1.24
405.61,-0.175,1.17
405.61,-0.17,1.135
405.61,-0.17,1.08
405.61,-0.155,1.015
405.62,-0.17,0.96
405.62,-0.16,0.885
405.62,-0.175,0.835
405.62,-0.175,0.785
405.63,-0.16,0.76
405.63,-0.15,0.7
405.63,-0.15,0.645
405.64,-0.17,0.585
405.64,-0.165,0.54
405.64,-0.155,0.495
405.64,-0.16,0.47
405.65,-0.16,0.43
405.65,-0.17,0.385
405.65,-0.175,0.335
405.66,-0.185,0.31
405.66,-0.17,0.27
405.66,-0.16,0.255
405.66,-0.16,0.225
405.67,-0.165,0.195
405.67,-0.18,0.15
405.67,-0.19,0.155
405.67,-0.2,0.14
405.68,-0.195,0.125
405.68,-0.18,0.115
405.68,-0.18,0.105
405.69,-0.215,0.09
405.69,-0.22,0.085
405.69,-0.225,0.095
405.69,-0.215,0.105
405.7,-0.22,0.1
405.7,-0.23,0.095
405.7,-0.245,0.075
405.71,-0.26,0.075
405.71,-0.275,0.075
405.71,-0.275,0.08
405.71,-0.27,0.075
405.72,-0.275,0.07
405.72,-0.285,0.065
405.72,-0.285,0.06
405.72,-0.29,0.06
405.73,-0.285,0.07
405.73,-0.27,0.07
405.73,-0.275,0.06
405.74,-0.29,0.05
405.74,-0.3,0.06
405.74,-0.3,0.06
405.74,-0.285,0.07
405.75,-0.275,0.08
405.75,-0.28,0.08
405.75,-0.3,0.055
405.76,-0.31,0.065
405.76,-0.3,0.07
405.76,-0.29,0.085
405.76,-0.29,0.065
405.77,-0.29,0.07
405.77,-0.3,0.065
405.77,-0.325,0.05
405.77,-0.32,0.06
405.78,-0.32,0.07
405.78,-0.305,0.06
405.78,-0.31,0.065
405.79,-0.325,0.05
405.79,-0.335,0.045
405.79,-0.335,0.06
405.79,-0.325,0.055
405.8,-0.31,0.06
405.8,-0.31,0.045
405.8,-0.32,0.04
405.81,-0.335,0.03
405.81,-0.33,0.03
405.81,-0.33,0.03
405.81,-0.325,0.04
405.82,-0.315,0.025
405.82,-0.33,0.015
405.82,-0.34,0.015
405.82,-0.345,0.015
405.83,-0.365,0.015
405.83,-0.34,0.015
405.83,-0.34,0
405.84,-0.355,-0.005
405.84,-0.355,-0.01
405.84,-0.36,-0.005
405.84,-0.36,-0.005
405.85,-0.35,-0.015
405.85,-0.36,-0.02
405.85,-0.37,-0.035
405.86,-0.355,-0.03
405.86,-0.355,-0.03
405.86,-0.355,-0.025
405.86,-0.35,-0.03
405.87,-0.345,-0.035
405.87,-0.36,-0.05
405.87,-0.37,-0.055
405.88,-0.365,-0.045
405.88,-0.36,-0.04
405.88,-0.345,-0.05
405.88,-0.36,-0.06
405.89,-0.365,-0.07
405.89,-0.37,-0.055
405.89,-0.37,-0.07
405.89,-0.38,-0.065
405.9,-0.355,-0.065
405.9,-0.36,-0.065
405.9,-0.37,-0.08
405.91,-0.375,-0.075
405.91,-0.37,-0.07
405.91,-0.365,-0.065
405.91,-0.36,-0.07
405.92,-0.365,-0.07
405.92,-0.36,-0.08
405.92,-0.37,-0.09
405.92,-0.365,-0.085
405.93,-0.37,-0.07
405.93,-0.355,-0.075
405.93,-0.36,-0.07
405.94,-0.365,-0.095
405.94,-0.375,-0.095
405.94,-0.365,-0.09
405.94,-0.365,-0.055
405.95,-0.365,-0.075
405.95,-0.36,-0.09
405.95,-0.37,-0.085
405.96,-0.38,-0.09
405.96,-0.365,-0.08
405.96,-0.355,-0.075
405.96,-0.355,-0.075
405.97,-0.365,-0.075
405.97,-0.365,-0.085
405.97,-0.375,-0.09
405.97,-0.37,-0.08
405.98,-0.36,-0.065
405.98,-0.35,-0.07
405.98,-0.35,-0.07
405.99,-0.365,-0.095
405.99,-0.375,-0.08
405.99,-0.37,-0.07
405.99,-0.355,-0.065
406,-0.345,-0.075
406,-0.35,-0.09
406,-0.35,-0.09
406.01,-0.36,-0.095
406.01,-0.365,-0.075
406.01,-0.355,-0.08
406.01,-0.345,-0.075
406.02,-0.355,-0.08
406.02,-0.35,-0.09
406.02,-0.365,-0.1
406.02,-0.36,-0.095
406.03,-0.35,-0.08
406.03,-0.34,-0.075
406.03,-0.35,-0.08
406.04,-0.35,-0.085
406.04,-0.36,-0.09
406.04,-0.35,-0.085
406.04,-0.345,-0.07
406.05,-0.34,-0.085
406.05,-0.34,-0.09
406.05,-0.345,-0.1
406.06,-0.36,-0.1
406.06,-0.335,-0.075
406.06,-0.335,-0.07
406.06,-0.325,-0.08
406.07,-0.335,-0.08
406.07,-0.34,-0.08
406.07,-0.345,-0.085
406.07,-0.34,-0.08
406.08,-0.32,-0.06
406.08,-0.315,-0.055
406.08,-0.31,-0.05
406.09,-0.305,-0.02
406.09,-0.3,0.06
406.09,-0.295,0.275
406.09,-0.255,0.645
406.1,-0.22,0.93
406.1,-0.175,0.9
406.1,-0.105,0.65
406.11,0.095,0.42
406.11,0.465,0.34
406.11,0.775,0.325
406.11,0.81,0.28
406.12,0.545,0.235
406.12,0.26,0.195
406.12,0.13,0.15
406.12,0.1,0.11
406.13,0.115,0.045
406.13,0.14,-0.085
406.13,0.135,-0.225
406.14,0.135,-0.395
406.14,0.125,-0.59
406.14,0.135,-0.81
406.14,0.155,-1.01
406.15,0.17,-1.245
406.15,0.175,-1.495
406.15,0.17,-1.73
406.16,0.14,-1.925
406.16,0.135,-2.07
406.16,0.155,-2.2
406.16,0.18,-2.31
406.17,0.185,-2.405
406.17,0.175,-2.5
406.17,0.155,-2.595
406.17,0.16,-2.68
406.18,0.16,-2.76
406.18,0.135,-2.81
406.18,0.09,-2.865
406.19,0.03,-2.895
406.19,-0.025,-2.915
406.19,-0.065,-2.935
406.19,-0.11,-2.935
406.2,-0.165,-2.93
406.2,-0.26,-2.95
406.2,-0.33,-2.965
406.21,-0.355,-2.965
406.21,-0.34,-2.95
406.21,-0.31,-2.93
406.21,-0.28,-2.93
406.22,-0.28,-2.925
406.22,-0.29,-2.915
406.22,-0.33,-2.86
406.22,-0.345,-2.81
406.23,-0.35,-2.71
406.23,-0.375,-2.61
406.23,-0.4,-2.495
406.24,-0.425,-2.36
406.24,-0.43,-2.175
406.24,-0.44,-1.955
406.24,-0.41,-1.73
406.25,-0.405,-1.48
406.25,-0.415,-1.26
406.25,-0.435,-1.045
406.26,-0.44,-0.8
406.26,-0.43,-0.585
406.26,-0.415,-0.365
406.26,-0.42,-0.2
406.27,-0.42,-0.035
406.27,-0.44,0.11
406.27,-0.47,0.265
406.27,-0.465,0.4
406.28,-0.465,0.52
406.28,-0.44,0.61
406.28,-0.43,0.67
406.29,-0.435,0.71
406.29,-0.445,0.75
406.29,-0.445,0.81
406.29,-0.42,0.85
406.3,-0.425,0.875
406.3,-0.415,0.905
406.3,-0.425,0.935
406.31,-0.445,0.955
406.31,-0.435,1
406.31,-0.43,1.025
406.31,-0.425,1.065
406.32,-0.415,1.085
406.32,-0.425,1.095
406.32,-0.435,1.13
406.32,-0.43,1.16
406.33,-0.43,1.195
406.33,-0.43,1.22
406.33,-0.43,1.25
406.34,-0.435,1.275
406.34,-0.44,1.295
406.34,-0.44,1.335
406.34,-0.43,1.36
406.35,-0.425,1.405
406.35,-0.43,1.44
406.35,-0.425,1.465
406.36,-0.435,1.495
406.36,-0.42,1.53
406.36,-0.415,1.595
406.36,-0.415,1.61
406.37,-0.405,1.635
406.37,-0.415,1.655
406.37,-0.42,1.69
406.38,-0.41,1.74
406.38,-0.415,1.77
406.38,-0.395,1.81
406.38,-0.4,1.825
406.39,-0.395,1.845
406.39,-0.4,1.86
406.39,-0.41,1.9
406.39,-0.385,1.92
406.4,-0.37,1.94
406.4,-0.355,1.95
406.4,-0.355,1.95
406.41,-0.37,1.95
406.41,-0.35,1.955
406.41,-0.335,1.955
406.41,-0.325,1.95
406.42,-0.32,1.93
406.42,-0.32,1.915
406.42,-0.325,1.89
406.42,-0.325,1.865
406.43,-0.3,1.835
406.43,-0.275,1.79
406.43,-0.275,1.76
406.44,-0.265,1.7
406.44,-0.275,1.665
406.44,-0.25,1.615
406.44,-0.255,1.575
406.45,-0.235,1.515
406.45,-0.23,1.44
406.45,-0.235,1.39
406.46,-0.235,1.325
406.46,-0.225,1.265
406.46,-0.215,1.205
406.46,-0.205,1.14
406.47,-0.21,1.07
406.47,-0.2,1.005
406.47,-0.205,0.945
406.47,-0.21,0.905
406.48,-0.195,0.86
406.48,-0.185,0.805
406.48,-0.19,0.74
406.49,-0.2,0.685
406.49,-0.21,0.635
406.49,-0.2,0.605
406.49,-0.19,0.57
406.5,-0.19,0.51
406.5,-0.2,0.475
406.5,-0.215,0.435
406.51,-0.225,0.38
406.51,-0.225,0.36
406.51,-0.225,0.345
406.51,-0.23,0.315
406.52,-0.22,0.28
406.52,-0.23,0.25
406.52,-0.25,0.23
406.52,-0.245,0.215
406.53,-0.255,0.2
406.53,-0.245,0.19
406.53,-0.25,0.155
406.54,-0.26,0.145
406.54,-0.265,0.135
406.54,-0.265,0.135
406.54,-0.25,0.135
406.55,-0.24,0.115
406.55,-0.26,0.105
406.55,-0.265,0.095
406.56,-0.285,0.09
406.56,-0.275,0.09
406.56,-0.27,0.095
406.56,-0.255,0.09
406.57,-0.26,0.085
406.57,-0.265,0.07
406.57,-0.285,0.065
406.57,-0.28,0.065
406.58,-0.275,0.07
406.58,-0.27,0.075
406.58,-0.27,0.06
406.59,-0.265,0.065
406.59,-0.285,0.07
406.59,-0.285,0.085
406.59,-0.28,0.1
406.6,-0.275,0.08
406.6,-0.275,0.1
406.6,-0.275,0.07
406.61,-0.295,0.09
406.61,-0.28,0.095
406.61,-0.295,0.115
406.61,-0.28,0.11
406.62,-0.28,0.12
406.62,-0.29,0.11
406.62,-0.3,0.105
406.62,-0.285,0.12
406.63,-0.285,0.13
406.63,-0.28,0.125
406.63,-0.29,0.125
406.64,-0.31,0.125
406.64,-0.315,0.115
406.64,-0.3,0.125
406.64,-0.285,0.13
406.65,-0.27,0.125
406.65,-0.26,0.1
406.65,-0.265,0.07
406.66,-0.28,0.065
406.66,-0.265,0.07
406.66,-0.265,0.075
406.66,-0.255,0.055
406.67,-0.25,0.045
406.67,-0.265,0.025
406.67,-0.27,0.005
406.67,-0.255,0.01
406.68,-0.26,0.02
406.68,-0.255,0.005
406.68,-0.27,-0.015
406.69,-0.28,-0.025
406.69,-0.29,-0.03
406.69,-0.28,-0.03
406.69,-0.265,-0.02
406.7,-0.28,-0.02
406.7,-0.26,-0.01
406.7,-0.285,-0.015
406.71,-0.295,-0.02
406.71,-0.295,-0.02
406.71,-0.305,-0.015
406.71,-0.31,-0.015
406.72,-0.32,-0.025
406.72,-0.34,-0.03
406.72,-0.355,-0.045
406.72,-0.345,-0.025
406.73,-0.335,-0.02
406.73,-0.33,-0.04
406.73,-0.31,-0.04
406.74,-0.315,-0.05
406.74,-0.335,-0.05
406.74,-0.335,-0.05
406.74,-0.32,-0.05
406.75,-0.31,-0.055
406.75,-0.325,-0.065
406.75,-0.345,-0.065
406.76,-0.35,-0.08
406.76,-0.35,-0.085
406.76,-0.34,-0.065
406.76,-0.325,-0.075
406.77,-0.34,-0.07
406.77,-0.36,-0.085
406.77,-0.37,-0.09
406.77,-0.36,-0.085
406.78,-0.35,-0.08
406.78,-0.34,-0.08
406.78,-0.34,-0.09
406.79,-0.35,-0.085
406.79,-0.365,-0.1
406.79,-0.36,-0.09
406.79,-0.34,-0.085
406.8,-0.335,-0.085
406.8,-0.325,-0.09
406.8,-0.33,-0.1
406.81,-0.345,-0.105
406.81,-0.34,-0.1
406.81,-0.35,-0.09
406.81,-0.35,-0.09
406.82,-0.35,-0.1
406.82,-0.355,-0.095
406.82,-0.35,-0.115
406.82,-0.335,-0.1
406.83,-0.32,-0.095
406.83,-0.315,-0.1
406.83,-0.31,-0.095
406.84,-0.335,-0.11
406.84,-0.35,-0.11
406.84,-0.35,-0.1
406.84,-0.34,-0.09
406.85,-0.33,-0.095
406.85,-0.33,-0.105
406.85,-0.34,-0.105
406.86,-0.35,-0.11
406.86,-0.355,-0.11
406.86,-0.345,-0.095
406.86,-0.325,-0.105
406.87,-0.325,-0.11
406.87,-0.33,-0.11
406.87,-0.345,-0.12
406.88,-0.335,-0.1
406.88,-0.335,-0.105
406.88,-0.335,-0.085
406.88,-0.335,-0.095
406.89,-0.355,-0.115
406.89,-0.34,-0.115
406.89,-0.335,-0.115
406.89,-0.325,-0.09
406.9,-0.31,-0.095
406.9,-0.31,-0.105
406.9,-0.325,-0.105
406.91,-0.345,-0.115
406.91,-0.34,-0.09
406.91,-0.33,-0.09
406.91,-0.325,-0.1
406.92,-0.32,-0.09
406.92,-0.32,-0.095
406.92,-0.32,-0.1
406.92,-0.325,-0.08
406.93,-0.31,-0.06
406.93,-0.3,-0.05
406.93,-0.285,-0.005
406.94,-0.31,0.095
406.94,-0.29,0.355
406.94,-0.265,0.715
406.94,-0.24,0.94
406.95,-0.19,0.845
406.95,-0.12,0.595
406.95,0.055,0.405
406.96,0.355,0.325
406.96,0.68,0.295
406.96,0.77,0.26
406.96,0.56,0.215
406.97,0.28,0.17
406.97,0.12,0.1
406.97,0.08,0.03
406.97,0.1,-0.055
406.98,0.105,-0.2
406.98,0.115,-0.385
406.98,0.12,-0.6
406.99,0.14,-0.85
406.99,0.155,-1.115
406.99,0.145,-1.33
406.99,0.17,-1.57
407,0.155,-1.82
407,0.13,-2.045
407,0.11,-2.21
407.01,0.095,-2.34
407.01,0.105,-2.45
407.01,0.12,-2.51
407.01,0.12,-2.575
407.02,0.11,-2.62
407.02,0.085,-2.69
407.02,0.06,-2.76
407.02,0.055,-2.815
407.03,0.06,-2.845
407.03,0.04,-2.87
407.03,-0.015,-2.895
407.04,-0.065,-2.92
407.04,-0.12,-2.955
407.04,-0.16,-2.955
407.04,-0.22,-2.95
407.05,-0.3,-2.965
407.05,-0.38,-2.97
407.05,-0.42,-2.98
407.06,-0.42,-2.965
407.06,-0.395,-2.965
407.06,-0.36,-2.945
407.06,-0.365,-2.92
407.07,-0.365,-2.905
407.07,-0.37,-2.86
407.07,-0.41,-2.785
407.07,-0.425,-2.685
407.08,-0.425,-2.575
407.08,-0.445,-2.45
407.08,-0.45,-2.335
407.09,-0.44,-2.195
407.09,-0.435,-1.99
407.09,-0.425,-1.785
407.09,-0.43,-1.545
407.1,-0.42,-1.34
407.1,-0.42,-1.115
407.1,-0.425,-0.915
407.11,-0.41,-0.7
407.11,-0.395,-0.47
407.11,-0.36,-0.27
407.11,-0.365,-0.11
407.12,-0.39,0.045
407.12,-0.42,0.185
407.12,-0.44,0.315
407.12,-0.45,0.45
407.13,-0.43,0.55
407.13,-0.405,0.65
407.13,-0.405,0.7
407.14,-0.41,0.745
407.14,-0.42,0.79
407.14,-0.405,0.84
407.14,-0.39,0.88
407.15,-0.385,0.915
407.15,-0.365,0.935
407.15,-0.365,0.95
407.16,-0.385,0.99
407.16,-0.38,1.025
407.16,-0.38,1.065
407.16,-0.375,1.1
407.17,-0.36,1.125
407.17,-0.355,1.145
407.17,-0.37,1.19
407.17,-0.37,1.225
407.18,-0.365,1.27
407.18,-0.35,1.31
407.18,-0.345,1.335
407.19,-0.37,1.365
407.19,-0.37,1.4
407.19,-0.38,1.435
407.19,-0.35,1.48
407.2,-0.345,1.5
407.2,-0.335,1.535
407.2,-0.33,1.57
407.21,-0.345,1.6
407.21,-0.36,1.645
407.21,-0.345,1.7
407.21,-0.33,1.72
407.22,-0.34,1.755
407.22,-0.335,1.78
407.22,-0.335,1.815
407.22,-0.325,1.85
407.23,-0.3,1.875
407.23,-0.285,1.91
407.23,-0.28,1.935
407.24,-0.285,1.935
407.24,-0.28,1.97
407.24,-0.275,1.98
407.24,-0.25,2.005
407.25,-0.245,2.02
407.25,-0.245,2.01
407.25,-0.255,2.01
407.26,-0.24,2.01
407.26,-0.225,2.005
407.26,-0.205,2.005
407.26,-0.175,1.995
407.27,-0.175,1.965
407.27,-0.185,1.94
407.27,-0.2,1.91
407.27,-0.2,1.89
407.28,-0.17,1.855
407.28,-0.155,1.825
407.28,-0.145,1.78
407.29,-0.135,1.73
407.29,-0.145,1.66
407.29,-0.135,1.62
407.29,-0.125,1.575
407.3,-0.11,1.515
407.3,-0.11,1.445
407.3,-0.11,1.38
407.31,-0.11,1.33
407.31,-0.1,1.265
407.31,-0.08,1.22
407.31,-0.085,1.135
407.32,-0.105,1.06
407.32,-0.115,1.01
407.32,-0.115,0.95
407.32,-0.125,0.89
407.33,-0.12,0.84
407.33,-0.115,0.79
407.33,-0.115,0.74
407.34,-0.115,0.67
407.34,-0.12,0.615
407.34,-0.125,0.575
407.34,-0.11,0.555
407.35,-0.11,0.5
407.35,-0.125,0.465
407.35,-0.135,0.425
407.36,-0.145,0.4
407.36,-0.15,0.37
407.36,-0.145,0.34
407.36,-0.14,0.32
407.37,-0.14,0.28
407.37,-0.135,0.25
407.37,-0.155,0.22
407.38,-0.175,0.215
407.38,-0.17,0.215
407.38,-0.17,0.19
407.38,-0.18,0.185
407.39,-0.19,0.15
407.39,-0.185,0.14
407.39,-0.175,0.14
407.39,-0.17,0.125
407.4,-0.18,0.115
407.4,-0.16,0.105
407.4,-0.185,0.08
407.41,-0.2,0.085
407.41,-0.19,0.075
407.41,-0.19,0.075
407.41,-0.185,0.065
407.42,-0.2,0.05
407.42,-0.195,0.045
407.42,-0.215,0.035
407.42,-0.195,0.045
407.43,-0.185,0.04
407.43,-0.19,0.04
407.43,-0.195,0.03
407.44,-0.215,0.015
407.44,-0.215,0.02
407.44,-0.21,0.03
407.44,-0.19,0.05
407.45,-0.2,0.05
407.45,-0.19,0.03
407.45,-0.19,0.01
407.46,-0.21,0.01
407.46,-0.205,0.025
407.46,-0.19,0.025
407.46,-0.185,0.025
407.47,-0.19,0.02
407.47,-0.215,0.01
407.47,-0.225,0.015
407.47,-0.22,0.02
407.48,-0.205,0.02
407.48,-0.2,0.03
407.48,-0.2,0.035
407.49,-0.205,0.015
407.49,-0.21,0.015
407.49,-0.205,0.03
407.49,-0.215,0.035
407.5,-0.205,0.04
407.5,-0.22,0.03
407.5,-0.225,0.015
407.51,-0.23,0.01
407.51,-0.21,0.025
407.51,-0.22,0.035
407.51,-0.21,0.02
407.52,-0.21,0.03
407.52,-0.225,0.01
407.52,-0.235,0
407.52,-0.235,0.005
407.53,-0.22,0.015
407.53,-0.205,0.02
407.53,-0.225,0.01
407.54,-0.225,0.005
407.54,-0.245,0.005
407.54,-0.25,0.015
407.54,-0.24,0.015
407.55,-0.245,0.02
407.55,-0.245,0.01
407.55,-0.25,0.01
407.56,-0.255,0.005
407.56,-0.255,0.03
407.56,-0.25,0.035
407.56,-0.26,0.025
407.57,-0.25,0.035
407.57,-0.26,0.02
407.57,-0.26,0.01
407.57,-0.27,0.025
407.58,-0.26,0.035
407.58,-0.255,0.01
407.58,-0.255,0.015
407.59,-0.26,0.01
407.59,-0.285,0.005
407.59,-0.265,0.015
407.59,-0.25,0.015
407.6,-0.24,0.005
407.6,-0.23,-0.005
407.6,-0.23,-0.035
407.61,-0.24,-0.035
407.61,-0.235,-0.04
407.61,-0.225,-0.04
407.61,-0.225,-0.05
407.62,-0.22,-0.08
407.62,-0.225,-0.085
407.62,-0.23,-0.1
407.62,-0.22,-0.1
407.63,-0.22,-0.105
407.63,-0.215,-0.12
407.63,-0.23,-0.12
407.64,-0.23,-0.135
407.64,-0.26,-0.14
407.64,-0.24,-0.145
407.64,-0.245,-0.125
407.65,-0.225,-0.12
407.65,-0.23,-0.11
407.65,-0.24,-0.11
407.66,-0.255,-0.125
407.66,-0.28,-0.115
407.66,-0.265,-0.115
407.66,-0.27,-0.115
407.67,-0.28,-0.12
407.67,-0.275,-0.13
407.67,-0.285,-0.13
407.67,-0.285,-0.125
407.68,-0.295,-0.12
407.68,-0.275,-0.11
407.68,-0.275,-0.12
407.69,-0.285,-0.12
407.69,-0.29,-0.125
407.69,-0.29,-0.115
407.69,-0.285,-0.115
407.7,-0.28,-0.11
407.7,-0.29,-0.12
407.7,-0.3,-0.135
407.71,-0.31,-0.135
407.71,-0.295,-0.125
407.71,-0.295,-0.105
407.71,-0.295,-0.12
407.72,-0.295,-0.125
407.72,-0.295,-0.13
407.72,-0.305,-0.135
407.72,-0.31,-0.13
407.73,-0.3,-0.125
407.73,-0.29,-0.13
407.73,-0.295,-0.13
407.74,-0.3,-0.135
407.74,-0.305,-0.14
407.74,-0.305,-0.13
407.74,-0.31,-0.125
407.75,-0.295,-0.125
407.75,-0.29,-0.14
407.75,-0.295,-0.135
407.76,-0.315,-0.135
407.76,-0.305,-0.12
407.76,-0.29,-0.115
407.76,-0.28,-0.115
407.77,-0.295,-0.12
407.77,-0.285,-0.12
407.77,-0.29,-0.105
407.77,-0.27,-0.105
407.78,-0.265,-0.065
407.78,-0.265,-0.02
407.78,-0.26,0.14
407.79,-0.235,0.445
407.79,-0.22,0.76
407.79,-0.2,0.825
407.79,-0.145,0.61
407.8,0.005,0.395
407.8,0.315,0.3
407.8,0.615,0.275
407.81,0.65,0.245
407.81,0.405,0.235
407.81,0.15,0.21
407.81,0.075,0.175
407.82,0.08,0.13
407.82,0.11,0.045
407.82,0.12,-0.06
407.82,0.145,-0.23
407.83,0.165,-0.405
407.83,0.195,-0.63
407.83,0.22,-0.865
407.84,0.235,-1.115
407.84,0.245,-1.36
407.84,0.255,-1.6
407.84,0.255,-1.775
407.85,0.27,-1.95
407.85,0.28,-2.095
407.85,0.295,-2.22
407.86,0.31,-2.33
407.86,0.32,-2.4
407.86,0.325,-2.49
407.86,0.32,-2.6
407.87,0.31,-2.7
407.87,0.295,-2.795
407.87,0.225,-2.85
407.88,0.17,-2.865
407.88,0.12,-2.885
407.88,0.08,-2.915
407.88,0.03,-2.935
407.89,-0.055,-2.955
407.89,-0.17,-2.975
407.89,-0.25,-2.975
407.89,-0.31,-2.965
407.9,-0.29,-2.97
407.9,-0.265,-2.965
407.9,-0.26,-2.955
407.91,-0.26,-2.915
407.91,-0.28,-2.855
407.91,-0.28,-2.78
407.91,-0.31,-2.665
407.92,-0.345,-2.565
407.92,-0.38,-2.445
407.92,-0.4,-2.29
407.92,-0.4,-2.1
407.93,-0.39,-1.9
407.93,-0.385,-1.66
407.93,-0.39,-1.415
407.94,-0.41,-1.18
407.94,-0.42,-0.96
407.94,-0.415,-0.72
407.94,-0.4,-0.505
407.95,-0.4,-0.315
407.95,-0.4,-0.145
407.95,-0.42,0.01
407.96,-0.445,0.14
407.96,-0.445,0.28
407.96,-0.435,0.405
407.96,-0.425,0.53
407.97,-0.425,0.615
407.97,-0.42,0.665
407.97,-0.42,0.71
407.97,-0.415,0.76
407.98,-0.41,0.805
407.98,-0.39,0.855
407.98,-0.395,0.875
407.99,-0.405,0.895
407.99,-0.405,0.935
407.99,-0.405,0.975
407.99,-0.4,1.015
408,-0.39,1.035
408,-0.4,1.065
408,-0.405,1.09
408.01,-0.42,1.12
408.01,-0.415,1.155
408.01,-0.4,1.2
408.01,-0.4,1.235
408.02,-0.41,1.265
408.02,-0.42,1.285
408.02,-0.43,1.34
408.02,-0.415,1.38
408.03,-0.395,1.43
408.03,-0.405,1.455
408.03,-0.405,1.505
408.04,-0.41,1.54
408.04,-0.415,1.575
408.04,-0.415,1.62
408.04,-0.405,1.65
408.05,-0.405,1.685
408.05,-0.395,1.71
408.05,-0.405,1.74
408.06,-0.4,1.785
408.06,-0.405,1.815
408.06,-0.395,1.86
408.06,-0.38,1.88
408.07,-0.37,1.895
408.07,-0.37,1.91
408.07,-0.385,1.93
408.07,-0.375,1.94
408.08,-0.355,1.955
408.08,-0.345,1.955
408.08,-0.33,1.97
408.09,-0.335,1.945
408.09,-0.34,1.94
408.09,-0.315,1.94
408.09,-0.3,1.92
408.1,-0.28,1.9
408.1,-0.285,1.865
408.1,-0.28,1.825
408.11,-0.275,1.785
408.11,-0.26,1.75
408.11,-0.245,1.715
408.11,-0.23,1.655
408.12,-0.225,1.605
408.12,-0.215,1.54
408.12,-0.225,1.485
408.12,-0.205,1.43
408.13,-0.195,1.365
408.13,-0.18,1.3
408.13,-0.185,1.225
408.14,-0.18,1.15
408.14,-0.185,1.08
408.14,-0.18,1.005
408.14,-0.17,0.965
408.15,-0.165,0.895
408.15,-0.17,0.835
408.15,-0.16,0.765
408.16,-0.175,0.71
408.16,-0.175,0.665
408.16,-0.16,0.62
408.16,-0.165,0.575
408.17,-0.17,0.525
408.17,-0.18,0.465
408.17,-0.195,0.425
408.17,-0.19,0.395
408.18,-0.195,0.38
408.18,-0.19,0.345
408.18,-0.19,0.305
408.19,-0.2,0.27
408.19,-0.21,0.245
408.19,-0.205,0.235
408.19,-0.205,0.22
408.2,-0.21,0.205
408.2,-0.21,0.17
408.2,-0.215,0.145
408.21,-0.215,0.14
408.21,-0.225,0.11
408.21,-0.22,0.12
408.21,-0.21,0.1
408.22,-0.215,0.095
408.22,-0.22,0.08
408.22,-0.24,0.065
408.22,-0.24,0.065
408.23,-0.225,0.07
408.23,-0.225,0.05
408.23,-0.225,0.05
408.24,-0.23,0.035
408.24,-0.255,0.025
408.24,-0.245,0.03
408.24,-0.235,0.035
408.25,-0.23,0.03
408.25,-0.22,0.025
408.25,-0.235,0.01
408.26,-0.24,0.02
408.26,-0.23,0.03
408.26,-0.225,0.04
408.26,-0.215,0.03
408.27,-0.225,0.025
408.27,-0.23,0.015
408.27,-0.24,0.01
408.27,-0.23,0.025
408.28,-0.23,0.035
408.28,-0.225,0.03
408.28,-0.23,0.04
408.29,-0.23,0.02
408.29,-0.24,0.02
408.29,-0.235,0.035
408.29,-0.23,0.04
408.3,-0.225,0.035
408.3,-0.235,0.035
408.3,-0.24,0.03
408.31,-0.25,0.03
408.31,-0.255,0.035
408.31,-0.24,0.05
408.31,-0.24,0.045
408.32,-0.235,0.025
408.32,-0.245,0.025
408.32,-0.25,0.03
408.32,-0.25,0.04
408.33,-0.245,0.035
408.33,-0.24,0.04
408.33,-0.25,0.025
408.34,-0.26,0.015
408.34,-0.27,0.02
408.34,-0.27,0.025
408.34,-0.245,0.025
408.35,-0.255,0.02
408.35,-0.25,0.02
408.35,-0.255,-0.005
408.36,-0.27,-0.005
408.36,-0.275,0.005
408.36,-0.27,0.01
408.36,-0.26,0
408.37,-0.27,-0.015
408.37,-0.27,-0.025
408.37,-0.29,-0.02
408.38,-0.28,-0.015
408.38,-0.275,-0.01
408.38,-0.26,-0.025
408.38,-0.27,-0.035
408.39,-0.285,-0.04
408.39,-0.295,-0.045
408.39,-0.3,-0.04
408.39,-0.285,-0.03
408.4,-0.275,-0.05
408.4,-0.275,-0.055
408.4,-0.285,-0.06
408.41,-0.29,-0.07
408.41,-0.285,-0.065
408.41,-0.285,-0.055
408.41,-0.28,-0.055
408.42,-0.28,-0.075
408.42,-0.295,-0.085
408.42,-0.3,-0.08
408.42,-0.295,-0.075
408.43,-0.295,-0.08
408.43,-0.285,-0.075
408.43,-0.29,-0.085
408.44,-0.31,-0.095
408.44,-0.315,-0.1
408.44,-0.31,-0.09
408.44,-0.3,-0.095
408.45,-0.3,-0.095
408.45,-0.295,-0.105
408.45,-0.305,-0.11
408.46,-0.305,-0.115
408.46,-0.305,-0.1
408.46,-0.295,-0.1
408.46,-0.295,-0.105
408.47,-0.29,-0.11
408.47,-0.305,-0.115
408.47,-0.32,-0.115
408.47,-0.31,-0.115
408.48,-0.295,-0.095
408.48,-0.295,-0.11
408.48,-0.3,-0.115
408.49,-0.305,-0.11
408.49,-0.32,-0.12
408.49,-0.315,-0.115
408.49,-0.305,-0.1
408.5,-0.29,-0.105
408.5,-0.295,-0.11
408.5,-0.315,-0.115
408.51,-0.305,-0.1
408.51,-0.315,-0.085
408.51,-0.295,-0.07
408.51,-0.295,-0.065
408.52,-0.31,-0.065
408.52,-0.315,-0.07
408.52,-0.33,-0.07
408.52,-0.325,-0.065
408.53,-0.315,-0.065
408.53,-0.31,-0.07
408.53,-0.315,-0.08
408.54,-0.315,-0.07
408.54,-0.315,-0.07
408.54,-0.32,-0.07
408.54,-0.295,-0.06
408.55,-0.285,-0.065
408.55,-0.285,-0.08
408.55,-0.29,-0.105
408.56,-0.29,-0.115
408.56,-0.265,-0.11
408.56,-0.26,-0.105
408.56,-0.245,-0.11
408.57,-0.235,-0.115
408.57,-0.25,-0.13
408.57,-0.25,-0.12
408.57,-0.245,-0.09
408.58,-0.23,-0.015
408.58,-0.215,0.15
408.58,-0.205,0.51
408.59,-0.2,0.85
408.59,-0.17,0.88
408.59,-0.13,0.635
408.59,-0.04,0.405
408.6,0.22,0.295
408.6,0.555,0.27
408.6,0.695,0.21
408.61,0.545,0.155
408.61,0.275,0.135
408.61,0.115,0.1
408.61,0.075,0.04
408.62,0.095,-0.07
408.62,0.105,-0.21
408.62,0.095,-0.385
408.62,0.12,-0.615
408.63,0.145,-0.855
408.63,0.155,-1.125
408.63,0.155,-1.395
408.64,0.15,-1.67
408.64,0.14,-1.915
408.64,0.145,-2.095
408.64,0.16,-2.235
408.65,0.19,-2.36
408.65,0.21,-2.455
408.65,0.22,-2.55
408.66,0.2,-2.635
408.66,0.2,-2.725
408.66,0.215,-2.795
408.66,0.205,-2.855
408.67,0.17,-2.9
408.67,0.11,-2.93
408.67,0.06,-2.95
408.67,0.025,-2.955
408.68,0,-2.96
408.68,-0.06,-2.975
408.68,-0.135,-3
408.69,-0.235,-3.015
408.69,-0.285,-3.01
408.69,-0.275,-3.01
408.69,-0.25,-2.985
