179.15,-0.25,-0.01
179.15,-0.255,-0.01
179.16,-0.26,0
179.16,-0.255,-0.005
179.16,-0.265,-0.01
179.16,-0.275,0
179.17,-0.275,-0.01
179.17,-0.265,-0.01
179.17,-0.255,-0.005
179.17,-0.235,0
179.18,-0.24,-0.005
179.18,-0.255,-0.01
179.18,-0.28,-0.015
179.19,-0.305,-0.015
179.19,-0.295,-0.01
179.19,-0.285,0.015
179.19,-0.26,0
179.2,-0.265,-0.005
179.2,-0.245,-0.025
179.2,-0.245,-0.015
179.21,-0.235,-0.005
179.21,-0.24,0
179.21,-0.225,-0.005
179.21,-0.255,-0.02
179.22,-0.27,-0.03
179.22,-0.275,-0.025
179.22,-0.275,-0.015
179.22,-0.265,-0.015
179.23,-0.26,-0.025
179.23,-0.26,-0.03
179.23,-0.255,-0.04
179.24,-0.255,-0.05
179.24,-0.26,-0.04
179.24,-0.26,-0.03
179.24,-0.26,-0.04
179.25,-0.27,-0.05
179.25,-0.27,-0.065
179.25,-0.27,-0.075
179.26,-0.265,-0.07
179.26,-0.25,-0.065
179.26,-0.25,-0.09
179.26,-0.265,-0.095
179.27,-0.27,-0.1
179.27,-0.29,-0.09
179.27,-0.285,-0.095
179.27,-0.27,-0.08
179.28,-0.265,-0.095
179.28,-0.265,-0.105
179.28,-0.265,-0.12
179.29,-0.27,-0.11
179.29,-0.27,-0.12
179.29,-0.265,-0.105
179.29,-0.28,-0.12
179.3,-0.275,-0.12
179.3,-0.29,-0.14
179.3,-0.295,-0.135
179.31,-0.285,-0.125
179.31,-0.28,-0.12
179.31,-0.275,-0.12
179.31,-0.28,-0.145
179.32,-0.295,-0.16
179.32,-0.295,-0.15
179.32,-0.29,-0.14
179.32,-0.275,-0.15
179.33,-0.29,-0.155
179.33,-0.285,-0.155
179.33,-0.285,-0.16
179.34,-0.305,-0.16
179.34,-0.285,-0.155
179.34,-0.29,-0.145
179.34,-0.29,-0.14
179.35,-0.29,-0.16
179.35,-0.29,-0.17
179.35,-0.3,-0.165
179.36,-0.295,-0.16
179.36,-0.29,-0.16
179.36,-0.295,-0.16
179.36,-0.285,-0.18
179.37,-0.29,-0.175
179.37,-0.295,-0.175
179.37,-0.285,-0.18
179.38,-0.28,-0.18
179.38,-0.29,-0.17
179.38,-0.275,-0.175
179.38,-0.3,-0.195
179.39,-0.305,-0.185
179.39,-0.28,-0.175
179.39,-0.285,-0.17
179.39,-0.295,-0.17
179.4,-0.295,-0.185
179.4,-0.29,-0.185
179.4,-0.285,-0.2
179.41,-0.29,-0.18
179.41,-0.29,-0.175
179.41,-0.29,-0.175
179.41,-0.28,-0.18
179.42,-0.3,-0.185
179.42,-0.295,-0.195
179.42,-0.295,-0.185
179.42,-0.295,-0.175
179.43,-0.28,-0.17
179.43,-0.285,-0.175
179.43,-0.29,-0.2
179.44,-0.3,-0.185
179.44,-0.295,-0.195
179.44,-0.295,-0.18
179.44,-0.27,-0.18
179.45,-0.295,-0.185
179.45,-0.295,-0.195
179.45,-0.3,-0.185
179.46,-0.285,-0.18
179.46,-0.27,-0.17
179.46,-0.26,-0.175
179.46,-0.27,-0.18
179.47,-0.285,-0.175
179.47,-0.275,-0.155
179.47,-0.27,-0.13
179.47,-0.25,-0.05
179.48,-0.235,0.16
179.48,-0.2,0.555
179.48,-0.18,0.79
179.49,-0.13,0.655
179.49,0.015,0.4
179.49,0.365,0.275
179.49,0.725,0.245
179.5,0.81,0.205
179.5,0.555,0.155
179.5,0.255,0.12
179.51,0.13,0.075
179.51,0.145,0
179.51,0.175,-0.11
179.51,0.185,-0.305
179.52,0.19,-0.51
179.52,0.195,-0.77
179.52,0.225,-1.015
179.52,0.24,-1.255
179.53,0.25,-1.505
179.53,0.235,-1.755
179.53,0.215,-1.99
179.54,0.18,-2.185
179.54,0.185,-2.34
179.54,0.19,-2.465
179.54,0.19,-2.575
179.55,0.165,-2.69
179.55,0.14,-2.805
179.55,0.105,-2.915
179.56,0.075,-2.995
179.56,0.02,-3.05
179.56,-0.045,-3.08
179.56,-0.125,-3.12
179.57,-0.18,-3.155
179.57,-0.23,-3.175
179.57,-0.29,-3.175
179.57,-0.38,-3.185
179.58,-0.48,-3.185
179.58,-0.545,-3.19
179.58,-0.56,-3.205
179.59,-0.535,-3.205
179.59,-0.49,-3.17
179.59,-0.465,-3.155
179.59,-0.48,-3.12
179.6,-0.5,-3.07
179.6,-0.53,-2.985
179.6,-0.54,-2.875
179.61,-0.545,-2.73
179.61,-0.515,-2.575
179.61,-0.49,-2.405
179.61,-0.47,-2.22
179.62,-0.455,-1.98
179.62,-0.43,-1.73
179.62,-0.415,-1.445
179.62,-0.395,-1.2
179.63,-0.395,-0.95
179.63,-0.395,-0.705
179.63,-0.4,-0.48
179.64,-0.405,-0.25
179.64,-0.405,-0.065
179.64,-0.415,0.095
179.64,-0.415,0.235
179.65,-0.425,0.37
179.65,-0.42,0.49
179.65,-0.405,0.595
179.66,-0.385,0.685
179.66,-0.365,0.74
179.66,-0.35,0.795
179.66,-0.36,0.815
179.67,-0.345,0.84
179.67,-0.335,0.87
179.67,-0.325,0.9
179.67,-0.33,0.935
179.68,-0.33,0.955
179.68,-0.33,0.975
179.68,-0.335,0.99
179.69,-0.34,1.02
179.69,-0.34,1.05
179.69,-0.335,1.08
179.69,-0.33,1.105
179.7,-0.335,1.13
179.7,-0.36,1.155
179.7,-0.36,1.2
179.71,-0.375,1.26
179.71,-0.375,1.285
179.71,-0.37,1.305
179.71,-0.395,1.33
179.72,-0.405,1.35
179.72,-0.415,1.38
179.72,-0.415,1.41
179.72,-0.41,1.455
179.73,-0.42,1.47
179.73,-0.41,1.505
179.73,-0.42,1.515
179.74,-0.445,1.555
179.74,-0.43,1.585
179.74,-0.425,1.615
179.74,-0.425,1.64
179.75,-0.43,1.665
179.75,-0.43,1.685
179.75,-0.45,1.71
179.76,-0.435,1.74
179.76,-0.43,1.775
179.76,-0.425,1.785
179.76,-0.42,1.805
179.77,-0.43,1.805
179.77,-0.435,1.825
179.77,-0.42,1.845
179.77,-0.405,1.87
179.78,-0.4,1.865
179.78,-0.395,1.87
179.78,-0.39,1.855
179.79,-0.4,1.855
179.79,-0.37,1.865
179.79,-0.35,1.85
179.79,-0.33,1.82
179.8,-0.335,1.8
179.8,-0.325,1.765
179.8,-0.315,1.72
179.81,-0.295,1.7
179.81,-0.275,1.66
179.81,-0.25,1.62
179.81,-0.25,1.555
179.82,-0.245,1.48
179.82,-0.25,1.425
179.82,-0.225,1.38
179.82,-0.205,1.32
179.83,-0.195,1.255
179.83,-0.19,1.175
179.83,-0.2,1.1
179.84,-0.19,1.04
179.84,-0.175,0.985
179.84,-0.16,0.93
179.84,-0.155,0.85
179.85,-0.16,0.79
179.85,-0.17,0.71
179.85,-0.17,0.665
179.86,-0.165,0.615
179.86,-0.145,0.56
179.86,-0.145,0.51
179.86,-0.17,0.455
179.87,-0.185,0.41
179.87,-0.185,0.365
179.87,-0.18,0.35
179.88,-0.175,0.315
179.88,-0.17,0.28
179.88,-0.175,0.25
179.88,-0.205,0.2
179.89,-0.21,0.18
179.89,-0.2,0.18
179.89,-0.2,0.165
179.89,-0.21,0.14
179.9,-0.225,0.12
179.9,-0.235,0.095
179.9,-0.24,0.085
179.91,-0.23,0.09
179.91,-0.22,0.075
179.91,-0.22,0.075
179.91,-0.235,0.05
179.92,-0.245,0.04
179.92,-0.265,0.035
179.92,-0.255,0.045
179.92,-0.24,0.045
179.93,-0.24,0.035
179.93,-0.255,0.025
179.93,-0.26,0.03
179.94,-0.26,0.03
179.94,-0.265,0.04
179.94,-0.24,0.035
179.94,-0.25,0.045
179.95,-0.25,0.035
179.95,-0.255,0.025
179.95,-0.27,0.025
179.96,-0.255,0.04
179.96,-0.25,0.05
179.96,-0.255,0.035
179.96,-0.245,0.035
179.97,-0.255,0.015
179.97,-0.265,0.03
179.97,-0.26,0.04
179.97,-0.26,0.04
179.98,-0.245,0.045
179.98,-0.26,0.04
179.98,-0.27,0.02
179.99,-0.275,0.03
179.99,-0.26,0.035
179.99,-0.255,0.035
179.99,-0.26,0.03
180,-0.265,0.03
180,-0.27,0.005
180,-0.27,0.015
180.01,-0.265,0.025
180.01,-0.265,0.025
180.01,-0.25,0.02
180.01,-0.27,0.005
180.02,-0.265,-0.005
180.02,-0.27,0
180.02,-0.265,0.01
180.02,-0.265,0.01
180.03,-0.26,0.01
180.03,-0.275,-0.02
180.03,-0.275,-0.015
180.04,-0.29,-0.025
180.04,-0.285,-0.02
180.04,-0.265,-0.03
180.04,-0.285,-0.035
180.05,-0.27,-0.045
180.05,-0.29,-0.055
180.05,-0.285,-0.055
180.06,-0.285,-0.045
180.06,-0.275,-0.06
180.06,-0.275,-0.055
180.06,-0.27,-0.07
180.07,-0.28,-0.08
180.07,-0.3,-0.08
180.07,-0.295,-0.085
180.07,-0.285,-0.07
180.08,-0.29,-0.085
180.08,-0.29,-0.085
180.08,-0.295,-0.1
180.09,-0.29,-0.105
180.09,-0.295,-0.09
180.09,-0.3,-0.1
180.09,-0.3,-0.1
180.1,-0.295,-0.11
180.1,-0.305,-0.13
180.1,-0.31,-0.12
180.11,-0.295,-0.12
180.11,-0.3,-0.12
180.11,-0.29,-0.135
180.11,-0.3,-0.13
180.12,-0.305,-0.14
180.12,-0.31,-0.15
180.12,-0.305,-0.13
180.12,-0.305,-0.14
180.13,-0.295,-0.135
180.13,-0.3,-0.145
180.13,-0.3,-0.15
180.14,-0.32,-0.15
180.14,-0.305,-0.14
180.14,-0.31,-0.14
180.14,-0.3,-0.145
180.15,-0.31,-0.155
180.15,-0.31,-0.15
180.15,-0.325,-0.15
180.16,-0.32,-0.15
180.16,-0.31,-0.145
180.16,-0.295,-0.15
180.16,-0.3,-0.155
180.17,-0.305,-0.165
180.17,-0.32,-0.17
180.17,-0.305,-0.155
180.17,-0.3,-0.155
180.18,-0.305,-0.16
180.18,-0.295,-0.17
180.18,-0.31,-0.175
180.19,-0.325,-0.175
180.19,-0.3,-0.16
180.19,-0.315,-0.155
180.19,-0.295,-0.165
180.2,-0.295,-0.16
180.2,-0.305,-0.175
180.2,-0.315,-0.175
180.21,-0.305,-0.17
180.21,-0.32,-0.165
180.21,-0.29,-0.16
180.21,-0.315,-0.175
180.22,-0.325,-0.185
180.22,-0.32,-0.175
180.22,-0.31,-0.17
180.22,-0.295,-0.165
180.23,-0.3,-0.16
180.23,-0.3,-0.165
180.23,-0.305,-0.18
180.24,-0.32,-0.185
180.24,-0.3,-0.175
180.24,-0.29,-0.17
180.24,-0.295,-0.18
180.25,-0.295,-0.18
180.25,-0.305,-0.18
180.25,-0.3,-0.175
180.26,-0.29,-0.165
180.26,-0.285,-0.15
180.26,-0.275,-0.155
180.26,-0.27,-0.145
180.27,-0.275,-0.135
180.27,-0.28,-0.105
180.27,-0.255,-0.01
180.27,-0.25,0.215
180.28,-0.225,0.585
180.28,-0.2,0.875
180.28,-0.18,0.81
180.29,-0.115,0.535
180.29,0.08,0.34
180.29,0.445,0.27
180.29,0.72,0.24
180.3,0.725,0.205
180.3,0.445,0.15
180.3,0.2,0.115
180.31,0.11,0.085
180.31,0.13,0.01
180.31,0.165,-0.115
180.31,0.18,-0.27
180.32,0.19,-0.495
180.32,0.19,-0.745
180.32,0.21,-0.99
180.32,0.235,-1.215
180.33,0.245,-1.49
180.33,0.245,-1.75
180.33,0.225,-1.985
180.34,0.2,-2.155
180.34,0.215,-2.285
180.34,0.23,-2.425
180.34,0.24,-2.55
180.35,0.225,-2.65
180.35,0.21,-2.72
180.35,0.175,-2.83
180.36,0.165,-2.925
180.36,0.165,-3
180.36,0.125,-3.055
180.36,0.035,-3.095
180.37,-0.04,-3.125
180.37,-0.095,-3.14
180.37,-0.135,-3.16
180.38,-0.195,-3.165
180.38,-0.295,-3.17
180.38,-0.4,-3.19
180.38,-0.43,-3.2
180.39,-0.43,-3.185
180.39,-0.4,-3.17
180.39,-0.36,-3.155
180.39,-0.34,-3.14
180.4,-0.355,-3.12
180.4,-0.385,-3.095
180.4,-0.41,-3.005
180.41,-0.43,-2.905
180.41,-0.425,-2.78
180.41,-0.43,-2.645
180.41,-0.435,-2.495
180.42,-0.425,-2.315
180.42,-0.425,-2.085
180.42,-0.405,-1.83
180.42,-0.395,-1.55
180.43,-0.39,-1.29
180.43,-0.39,-1.055
180.43,-0.39,-0.83
180.44,-0.4,-0.57
180.44,-0.38,-0.33
180.44,-0.375,-0.155
180.44,-0.37,0.015
180.45,-0.395,0.16
180.45,-0.4,0.29
180.45,-0.4,0.425
180.46,-0.38,0.555
180.46,-0.355,0.65
180.46,-0.34,0.735
180.46,-0.345,0.765
180.47,-0.335,0.78
180.47,-0.35,0.835
180.47,-0.345,0.86
180.47,-0.335,0.895
180.48,-0.325,0.915
180.48,-0.33,0.945
180.48,-0.345,0.95
180.49,-0.35,0.99
180.49,-0.335,1.035
180.49,-0.34,1.08
180.49,-0.335,1.12
180.5,-0.345,1.15
180.5,-0.345,1.15
180.5,-0.375,1.19
180.51,-0.375,1.225
180.51,-0.375,1.265
180.51,-0.38,1.285
180.51,-0.385,1.305
180.52,-0.395,1.33
180.52,-0.405,1.36
180.52,-0.395,1.395
180.52,-0.4,1.425
180.53,-0.41,1.46
180.53,-0.41,1.48
180.53,-0.425,1.5
180.54,-0.43,1.535
180.54,-0.425,1.57
180.54,-0.42,1.605
180.54,-0.435,1.625
180.55,-0.45,1.65
180.55,-0.45,1.67
180.55,-0.45,1.705
180.56,-0.45,1.74
180.56,-0.43,1.77
180.56,-0.43,1.805
180.56,-0.43,1.805
180.57,-0.44,1.815
180.57,-0.435,1.845
180.57,-0.42,1.88
180.57,-0.405,1.9
180.58,-0.41,1.92
180.58,-0.405,1.93
180.58,-0.42,1.935
180.59,-0.405,1.955
180.59,-0.39,1.975
180.59,-0.375,1.965
180.59,-0.37,1.965
180.6,-0.37,1.95
180.6,-0.365,1.92
180.6,-0.36,1.915
180.61,-0.35,1.895
180.61,-0.335,1.875
180.61,-0.325,1.85
180.61,-0.31,1.79
180.62,-0.31,1.775
180.62,-0.3,1.73
180.62,-0.27,1.68
180.62,-0.255,1.65
180.63,-0.26,1.59
180.63,-0.24,1.515
180.63,-0.245,1.455
180.64,-0.225,1.395
180.64,-0.215,1.34
180.64,-0.19,1.275
180.64,-0.19,1.205
180.65,-0.185,1.135
180.65,-0.185,1.06
180.65,-0.19,1.005
180.66,-0.175,0.95
180.66,-0.15,0.885
180.66,-0.14,0.815
180.66,-0.145,0.77
180.67,-0.155,0.7
180.67,-0.17,0.65
180.67,-0.165,0.63
180.67,-0.16,0.58
180.68,-0.175,0.51
180.68,-0.175,0.47
180.68,-0.195,0.415
180.69,-0.195,0.395
180.69,-0.185,0.355
180.69,-0.175,0.325
180.69,-0.165,0.285
180.7,-0.175,0.245
180.7,-0.195,0.23
180.7,-0.195,0.19
180.71,-0.195,0.195
180.71,-0.205,0.175
180.71,-0.205,0.145
180.71,-0.215,0.125
180.72,-0.22,0.105
180.72,-0.22,0.08
180.72,-0.235,0.09
180.72,-0.225,0.095
180.73,-0.23,0.075
180.73,-0.25,0.065
180.73,-0.255,0.05
180.74,-0.27,0.05
180.74,-0.245,0.06
180.74,-0.245,0.065
180.74,-0.245,0.065
180.75,-0.26,0.035
180.75,-0.265,0.04
180.75,-0.27,0.035
180.76,-0.255,0.04
180.76,-0.25,0.05
180.76,-0.255,0.05
180.76,-0.255,0.035
180.77,-0.255,0.025
180.77,-0.275,0.03
180.77,-0.25,0.035
180.77,-0.24,0.035
180.78,-0.255,0.045
180.78,-0.265,0.03
180.78,-0.28,0.02
180.79,-0.285,0.02
180.79,-0.275,0.045
180.79,-0.27,0.04
180.79,-0.26,0.045
180.8,-0.28,0.03
180.8,-0.275,0.02
180.8,-0.28,0.025
180.81,-0.275,0.045
180.81,-0.275,0.035
180.81,-0.265,0.035
180.81,-0.275,0.025
180.82,-0.285,0.015
180.82,-0.275,0.02
180.82,-0.27,0.015
180.82,-0.255,0.03
180.83,-0.26,0.025
180.83,-0.265,0.015
180.83,-0.275,0
180.84,-0.285,0.005
180.84,-0.275,0.005
180.84,-0.255,0.01
180.84,-0.26,0.01
180.85,-0.28,-0.015
180.85,-0.29,-0.025
180.85,-0.305,-0.015
180.86,-0.28,-0.025
180.86,-0.265,-0.01
180.86,-0.265,-0.02
180.86,-0.265,-0.03
180.87,-0.27,-0.05
180.87,-0.275,-0.035
180.87,-0.27,-0.03
180.88,-0.265,-0.04
180.88,-0.275,-0.04
180.88,-0.29,-0.06
180.88,-0.3,-0.075
180.89,-0.32,-0.065
180.89,-0.31,-0.065
180.89,-0.305,-0.06
180.89,-0.31,-0.07
180.9,-0.31,-0.09
180.9,-0.315,-0.095
180.9,-0.31,-0.095
180.91,-0.3,-0.09
180.91,-0.28,-0.09
180.91,-0.28,-0.085
180.91,-0.28,-0.105
180.92,-0.285,-0.11
180.92,-0.295,-0.11
180.92,-0.295,-0.11
180.92,-0.295,-0.1
180.93,-0.3,-0.12
180.93,-0.31,-0.12
180.93,-0.31,-0.125
180.94,-0.315,-0.13
180.94,-0.3,-0.13
180.94,-0.285,-0.125
180.94,-0.285,-0.135
180.95,-0.31,-0.145
180.95,-0.32,-0.155
180.95,-0.32,-0.15
180.96,-0.31,-0.135
180.96,-0.295,-0.14
180.96,-0.3,-0.135
180.96,-0.3,-0.155
180.97,-0.3,-0.155
180.97,-0.305,-0.155
180.97,-0.29,-0.155
180.97,-0.285,-0.14
180.98,-0.285,-0.145
180.98,-0.29,-0.155
180.98,-0.31,-0.165
180.99,-0.32,-0.16
180.99,-0.315,-0.145
180.99,-0.295,-0.155
180.99,-0.3,-0.15
181,-0.3,-0.16
181,-0.305,-0.175
181,-0.295,-0.16
181.01,-0.295,-0.15
181.01,-0.275,-0.16
181.01,-0.28,-0.16
181.01,-0.29,-0.17
181.02,-0.305,-0.19
181.02,-0.315,-0.17
181.02,-0.305,-0.165
181.02,-0.29,-0.165
181.03,-0.29,-0.16
181.03,-0.305,-0.18
181.03,-0.32,-0.19
181.04,-0.325,-0.18
181.04,-0.315,-0.165
181.04,-0.305,-0.17
181.04,-0.3,-0.17
181.05,-0.3,-0.18
181.05,-0.3,-0.19
181.05,-0.3,-0.185
181.06,-0.285,-0.165
181.06,-0.285,-0.165
181.06,-0.305,-0.165
181.06,-0.3,-0.185
181.07,-0.295,-0.19
181.07,-0.295,-0.185
181.07,-0.265,-0.18
181.07,-0.26,-0.165
181.08,-0.255,-0.18
181.08,-0.265,-0.17
181.08,-0.265,-0.18
181.09,-0.28,-0.17
181.09,-0.28,-0.15
181.09,-0.265,-0.13
181.09,-0.255,-0.115
181.1,-0.25,-0.03
181.1,-0.24,0.19
181.1,-0.22,0.575
181.11,-0.18,0.84
181.11,-0.115,0.705
181.11,0,0.445
181.11,0.265,0.28
181.12,0.64,0.225
181.12,0.79,0.21
181.12,0.625,0.18
181.12,0.345,0.13
181.13,0.195,0.095
181.13,0.17,0.01
181.13,0.185,-0.1
181.14,0.21,-0.24
181.14,0.205,-0.42
181.14,0.225,-0.645
181.14,0.225,-0.91
181.15,0.235,-1.205
181.15,0.225,-1.485
181.15,0.21,-1.75
181.16,0.21,-1.985
181.16,0.2,-2.155
181.16,0.205,-2.33
181.16,0.205,-2.48
181.17,0.205,-2.6
181.17,0.2,-2.675
181.17,0.185,-2.755
181.17,0.175,-2.855
181.18,0.15,-2.96
181.18,0.1,-3.06
181.18,0.035,-3.105
181.19,-0.03,-3.125
181.19,-0.08,-3.135
181.19,-0.13,-3.145
181.19,-0.2,-3.17
181.2,-0.295,-3.185
181.2,-0.4,-3.195
181.2,-0.47,-3.19
181.21,-0.495,-3.18
181.21,-0.47,-3.175
181.21,-0.455,-3.16
181.21,-0.46,-3.16
181.22,-0.475,-3.12
181.22,-0.495,-3.035
181.22,-0.51,-2.925
181.22,-0.515,-2.805
181.23,-0.535,-2.65
181.23,-0.52,-2.495
181.23,-0.495,-2.325
181.24,-0.48,-2.095
181.24,-0.43,-1.85
181.24,-0.4,-1.59
181.24,-0.405,-1.33
181.25,-0.41,-1.135
181.25,-0.42,-0.9
181.25,-0.4,-0.655
181.26,-0.37,-0.43
181.26,-0.325,-0.22
181.26,-0.335,-0.05
181.26,-0.36,0.1
181.27,-0.39,0.245
181.27,-0.385,0.385
181.27,-0.355,0.525
181.27,-0.335,0.62
181.28,-0.31,0.685
181.28,-0.325,0.715
181.28,-0.31,0.74
181.29,-0.32,0.79
181.29,-0.315,0.82
181.29,-0.305,0.86
181.29,-0.285,0.88
181.3,-0.29,0.91
181.3,-0.295,0.945
181.3,-0.3,0.995
181.31,-0.3,1.04
181.31,-0.315,1.06
181.31,-0.32,1.085
181.31,-0.32,1.105
181.32,-0.335,1.12
181.32,-0.34,1.165
181.32,-0.335,1.2
181.32,-0.33,1.225
181.33,-0.325,1.25
181.33,-0.34,1.275
181.33,-0.35,1.3
181.34,-0.36,1.33
181.34,-0.37,1.38
181.34,-0.365,1.405
181.34,-0.355,1.435
181.35,-0.36,1.46
181.35,-0.35,1.475
181.35,-0.365,1.515
181.36,-0.36,1.56
181.36,-0.35,1.6
181.36,-0.365,1.615
181.36,-0.37,1.63
181.37,-0.4,1.67
181.37,-0.4,1.695
181.37,-0.375,1.73
181.38,-0.355,1.78
181.38,-0.34,1.79
181.38,-0.34,1.8
181.38,-0.32,1.82
181.39,-0.34,1.845
181.39,-0.335,1.865
181.39,-0.31,1.89
181.39,-0.305,1.89
181.4,-0.295,1.885
181.4,-0.29,1.9
181.4,-0.265,1.9
181.41,-0.24,1.905
181.41,-0.235,1.905
181.41,-0.235,1.89
181.41,-0.25,1.87
181.42,-0.245,1.815
181.42,-0.24,1.795
181.42,-0.215,1.78
181.42,-0.195,1.74
181.43,-0.195,1.695
181.43,-0.18,1.65
181.43,-0.17,1.585
181.44,-0.135,1.545
181.44,-0.12,1.485
181.44,-0.09,1.435
181.44,-0.09,1.38
181.45,-0.115,1.3
181.45,-0.125,1.23
181.45,-0.115,1.175
181.46,-0.095,1.115
181.46,-0.075,1.05
181.46,-0.07,0.975
181.46,-0.09,0.91
181.47,-0.105,0.84
181.47,-0.115,0.785
181.47,-0.095,0.74
181.47,-0.07,0.68
181.48,-0.06,0.625
181.48,-0.07,0.57
181.48,-0.085,0.51
181.49,-0.115,0.465
181.49,-0.115,0.44
181.49,-0.115,0.4
181.49,-0.11,0.375
181.5,-0.13,0.335
181.5,-0.13,0.275
181.5,-0.14,0.255
181.51,-0.12,0.24
181.51,-0.13,0.23
181.51,-0.13,0.2
181.51,-0.145,0.16
181.52,-0.165,0.14
181.52,-0.18,0.13
181.52,-0.195,0.11
181.52,-0.185,0.11
181.53,-0.185,0.09
181.53,-0.175,0.08
181.53,-0.205,0.055
181.54,-0.19,0.05
181.54,-0.19,0.045
181.54,-0.185,0.04
181.54,-0.18,0.035
181.55,-0.18,0.02
181.55,-0.185,0
181.55,-0.195,0
181.56,-0.185,0.025
181.56,-0.165,0.02
181.56,-0.175,0.015
181.56,-0.18,0.005
181.57,-0.2,0.005
181.57,-0.21,0
181.57,-0.21,0.015
181.57,-0.205,0.015
181.58,-0.21,0.01
181.58,-0.21,0
181.58,-0.225,-0.005
181.59,-0.22,0.01
181.59,-0.22,0.015
181.59,-0.21,0.02
181.59,-0.2,0.01
181.6,-0.21,0.015
181.6,-0.205,-0.005
181.6,-0.225,0.01
181.61,-0.215,0.015
181.61,-0.21,0.01
181.61,-0.215,0.01
181.61,-0.225,0.005
181.62,-0.23,0
181.62,-0.235,-0.005
181.62,-0.225,0.005
181.62,-0.22,0.01
181.63,-0.22,0
181.63,-0.225,-0.01
181.63,-0.235,-0.015
181.64,-0.245,-0.01
181.64,-0.24,0
181.64,-0.23,0
181.64,-0.235,-0.015
181.65,-0.235,-0.01
181.65,-0.245,-0.025
181.65,-0.25,-0.02
181.66,-0.235,-0.015
181.66,-0.225,-0.015
181.66,-0.225,-0.03
181.66,-0.24,-0.04
181.67,-0.24,-0.06
181.67,-0.25,-0.045
181.67,-0.25,-0.04
181.67,-0.24,-0.05
181.68,-0.24,-0.04
181.68,-0.245,-0.055
181.68,-0.24,-0.07
181.69,-0.255,-0.07
181.69,-0.24,-0.075
181.69,-0.23,-0.055
181.69,-0.24,-0.07
181.7,-0.245,-0.09
181.7,-0.245,-0.09
181.7,-0.255,-0.1
181.71,-0.255,-0.095
181.71,-0.245,-0.095
181.71,-0.25,-0.1
181.71,-0.255,-0.115
181.72,-0.27,-0.13
181.72,-0.275,-0.11
181.72,-0.26,-0.11
181.72,-0.26,-0.12
181.73,-0.26,-0.12
181.73,-0.26,-0.13
181.73,-0.265,-0.145
181.74,-0.28,-0.13
181.74,-0.265,-0.13
181.74,-0.26,-0.14
181.74,-0.275,-0.135
181.75,-0.265,-0.15
181.75,-0.28,-0.17
181.75,-0.275,-0.155
181.76,-0.26,-0.155
181.76,-0.275,-0.15
181.76,-0.26,-0.145
181.76,-0.27,-0.165
181.77,-0.27,-0.175
181.77,-0.275,-0.175
181.77,-0.27,-0.155
181.77,-0.26,-0.155
181.78,-0.265,-0.155
181.78,-0.265,-0.165
181.78,-0.285,-0.18
181.79,-0.275,-0.18
181.79,-0.27,-0.16
181.79,-0.265,-0.155
181.79,-0.26,-0.165
181.8,-0.27,-0.18
181.8,-0.27,-0.195
181.8,-0.28,-0.185
181.81,-0.27,-0.18
181.81,-0.26,-0.165
181.81,-0.26,-0.17
181.81,-0.285,-0.18
181.82,-0.28,-0.2
181.82,-0.28,-0.185
181.82,-0.285,-0.175
181.82,-0.275,-0.175
181.83,-0.285,-0.17
181.83,-0.29,-0.19
181.83,-0.285,-0.19
181.84,-0.295,-0.195
181.84,-0.285,-0.175
181.84,-0.265,-0.17
181.84,-0.265,-0.18
181.85,-0.265,-0.195
181.85,-0.285,-0.195
181.85,-0.29,-0.195
181.86,-0.275,-0.185
181.86,-0.27,-0.18
181.86,-0.27,-0.185
181.86,-0.28,-0.195
181.87,-0.28,-0.205
181.87,-0.29,-0.2
181.87,-0.275,-0.19
181.88,-0.255,-0.18
181.88,-0.255,-0.18
181.88,-0.265,-0.18
181.88,-0.275,-0.205
181.89,-0.275,-0.185
181.89,-0.26,-0.18
181.89,-0.25,-0.165
181.89,-0.245,-0.155
181.9,-0.245,-0.155
181.9,-0.245,-0.12
181.9,-0.25,-0.025
181.91,-0.225,0.19
181.91,-0.19,0.575
181.91,-0.165,0.875
181.91,-0.13,0.77
181.92,-0.03,0.485
181.92,0.245,0.295
181.92,0.635,0.26
181.92,0.815,0.235
181.93,0.635,0.2
181.93,0.305,0.14
181.93,0.145,0.085
181.94,0.12,0.045
181.94,0.165,-0.05
181.94,0.2,-0.195
181.94,0.215,-0.38
181.95,0.215,-0.635
181.95,0.225,-0.91
181.95,0.24,-1.17
181.96,0.265,-1.43
181.96,0.265,-1.69
181.96,0.25,-1.945
181.96,0.235,-2.14
181.97,0.225,-2.32
181.97,0.22,-2.46
181.97,0.24,-2.545
181.97,0.23,-2.64
181.98,0.21,-2.745
181.98,0.175,-2.88
181.98,0.14,-2.995
181.99,0.08,-3.05
181.99,0.015,-3.075
181.99,-0.055,-3.105
181.99,-0.115,-3.125
182,-0.18,-3.175
182,-0.285,-3.18
182,-0.385,-3.18
182.01,-0.44,-3.175
182.01,-0.45,-3.175
182.01,-0.435,-3.175
182.01,-0.415,-3.18
182.02,-0.405,-3.165
182.02,-0.415,-3.11
182.02,-0.42,-3.035
182.02,-0.435,-2.935
182.03,-0.45,-2.8
182.03,-0.46,-2.645
182.03,-0.465,-2.48
182.04,-0.435,-2.265
182.04,-0.415,-2.01
182.04,-0.385,-1.755
182.04,-0.37,-1.495
182.05,-0.37,-1.27
182.05,-0.375,-1.03
182.05,-0.37,-0.755
182.06,-0.35,-0.505
182.06,-0.335,-0.28
182.06,-0.355,-0.105
182.06,-0.375,0.045
182.07,-0.39,0.175
182.07,-0.39,0.335
182.07,-0.37,0.465
182.07,-0.36,0.56
182.08,-0.36,0.62
182.08,-0.36,0.66
182.08,-0.365,0.68
182.09,-0.365,0.725
182.09,-0.35,0.78
182.09,-0.34,0.825
182.09,-0.34,0.865
182.1,-0.34,0.88
182.1,-0.36,0.915
182.1,-0.37,0.96
182.11,-0.375,0.995
182.11,-0.375,1.025
182.11,-0.39,1.045
182.11,-0.385,1.065
182.12,-0.395,1.09
182.12,-0.4,1.11
182.12,-0.4,1.16
182.12,-0.4,1.185
182.13,-0.405,1.21
182.13,-0.415,1.23
182.13,-0.425,1.25
182.14,-0.445,1.285
182.14,-0.435,1.32
182.14,-0.435,1.35
182.14,-0.43,1.38
182.15,-0.44,1.4
182.15,-0.45,1.43
182.15,-0.46,1.475
182.16,-0.455,1.52
182.16,-0.45,1.535
182.16,-0.455,1.58
182.16,-0.46,1.605
182.17,-0.47,1.63
182.17,-0.46,1.64
182.17,-0.455,1.7
182.17,-0.445,1.715
182.18,-0.44,1.755
182.18,-0.44,1.76
182.18,-0.44,1.785
182.19,-0.44,1.805
182.19,-0.43,1.835
182.19,-0.405,1.86
182.19,-0.39,1.865
182.2,-0.39,1.875
182.2,-0.385,1.875
182.2,-0.365,1.88
182.21,-0.35,1.875
182.21,-0.325,1.875
182.21,-0.33,1.855
182.21,-0.32,1.825
182.22,-0.31,1.795
182.22,-0.315,1.77
182.22,-0.285,1.735
182.22,-0.26,1.705
182.23,-0.25,1.665
182.23,-0.245,1.605
182.23,-0.245,1.54
182.24,-0.22,1.505
182.24,-0.205,1.455
182.24,-0.195,1.395
182.24,-0.185,1.335
182.25,-0.185,1.255
182.25,-0.175,1.195
182.25,-0.18,1.13
182.26,-0.155,1.07
182.26,-0.14,1.01
182.26,-0.15,0.94
182.26,-0.15,0.885
182.27,-0.145,0.805
182.27,-0.15,0.74
182.27,-0.135,0.705
182.27,-0.125,0.645
182.28,-0.13,0.6
182.28,-0.14,0.54
182.28,-0.16,0.48
182.29,-0.145,0.435
182.29,-0.155,0.425
182.29,-0.14,0.37
182.29,-0.14,0.345
182.3,-0.155,0.305
182.3,-0.17,0.265
182.3,-0.175,0.235
182.31,-0.17,0.225
182.31,-0.16,0.205
182.31,-0.165,0.175
182.31,-0.175,0.15
182.32,-0.195,0.12
182.32,-0.21,0.1
182.32,-0.2,0.1
182.32,-0.195,0.09
182.33,-0.205,0.075
182.33,-0.21,0.05
182.33,-0.22,0.035
182.34,-0.22,0.035
182.34,-0.215,0.035
182.34,-0.21,0.03
182.34,-0.21,0.03
182.35,-0.23,0.01
182.35,-0.235,-0.005
182.35,-0.255,0
182.36,-0.24,-0.005
182.36,-0.22,0.01
182.36,-0.24,0.005
182.36,-0.245,-0.005
182.37,-0.245,-0.015
182.37,-0.255,-0.015
182.37,-0.24,-0.005
182.38,-0.225,0.01
182.38,-0.235,0
182.38,-0.245,-0.01
182.38,-0.255,-0.01
182.39,-0.255,-0.01
182.39,-0.25,0.015
182.39,-0.23,0.01
182.39,-0.225,0
182.4,-0.24,-0.005
182.4,-0.245,-0.015
182.4,-0.25,0
182.41,-0.255,-0.005
182.41,-0.235,0.01
182.41,-0.25,0.005
182.41,-0.25,-0.005
182.42,-0.26,-0.005
182.42,-0.255,-0.005
182.42,-0.25,0
182.42,-0.24,0.01
182.43,-0.25,0.005
182.43,-0.26,-0.02
182.43,-0.27,-0.025
182.44,-0.265,-0.02
182.44,-0.265,-0.015
182.44,-0.255,-0.005
182.44,-0.255,-0.015
182.45,-0.265,-0.035
182.45,-0.27,-0.04
182.45,-0.275,-0.04
182.46,-0.27,-0.025
182.46,-0.26,-0.025
182.46,-0.25,-0.03
182.46,-0.26,-0.05
182.47,-0.265,-0.06
182.47,-0.275,-0.055
182.47,-0.27,-0.06
182.47,-0.26,-0.07
182.48,-0.26,-0.075
182.48,-0.275,-0.085
182.48,-0.285,-0.1
182.49,-0.285,-0.1
182.49,-0.285,-0.09
182.49,-0.265,-0.09
182.49,-0.275,-0.095
182.5,-0.27,-0.105
182.5,-0.285,-0.125
182.5,-0.295,-0.12
182.51,-0.29,-0.11
182.51,-0.28,-0.105
182.51,-0.27,-0.12
182.51,-0.295,-0.14
182.52,-0.305,-0.14
182.52,-0.305,-0.145
182.52,-0.29,-0.135
182.52,-0.28,-0.14
182.53,-0.275,-0.145
182.53,-0.29,-0.16
182.53,-0.3,-0.155
182.54,-0.305,-0.16
182.54,-0.295,-0.15
182.54,-0.275,-0.145
182.54,-0.285,-0.16
182.55,-0.29,-0.175
182.55,-0.31,-0.18
182.55,-0.3,-0.18
182.56,-0.29,-0.165
182.56,-0.285,-0.165
182.56,-0.28,-0.165
182.56,-0.29,-0.19
182.57,-0.31,-0.185
182.57,-0.305,-0.185
182.57,-0.29,-0.17
182.57,-0.285,-0.175
182.58,-0.29,-0.165
182.58,-0.305,-0.19
182.58,-0.3,-0.195
182.59,-0.31,-0.19
182.59,-0.3,-0.18
182.59,-0.3,-0.175
182.59,-0.3,-0.175
182.6,-0.305,-0.21
182.6,-0.31,-0.205
182.6,-0.31,-0.19
182.61,-0.305,-0.19
182.61,-0.29,-0.185
182.61,-0.295,-0.19
182.61,-0.3,-0.2
182.62,-0.3,-0.215
182.62,-0.32,-0.21
182.62,-0.305,-0.195
182.62,-0.285,-0.19
182.63,-0.29,-0.19
182.63,-0.295,-0.205
182.63,-0.295,-0.21
182.64,-0.3,-0.205
182.64,-0.29,-0.195
182.64,-0.29,-0.19
182.64,-0.285,-0.2
182.65,-0.31,-0.21
182.65,-0.31,-0.215
182.65,-0.305,-0.21
182.66,-0.29,-0.195
182.66,-0.3,-0.195
182.66,-0.285,-0.205
182.66,-0.3,-0.21
182.67,-0.3,-0.215
182.67,-0.3,-0.205
182.67,-0.28,-0.195
182.67,-0.275,-0.19
182.68,-0.28,-0.195
182.68,-0.3,-0.195
182.68,-0.3,-0.205
182.69,-0.28,-0.2
182.69,-0.275,-0.185
182.69,-0.265,-0.185
182.69,-0.27,-0.18
182.7,-0.27,-0.165
182.7,-0.27,-0.125
182.7,-0.265,0
182.71,-0.23,0.305
182.71,-0.185,0.68
182.71,-0.155,0.835
182.71,-0.09,0.64
182.72,0.07,0.365
182.72,0.445,0.235
182.72,0.82,0.21
182.72,0.85,0.185
182.73,0.55,0.15
182.73,0.25,0.085
182.73,0.14,0.03
182.74,0.16,-0.035
182.74,0.19,-0.15
182.74,0.225,-0.31
182.74,0.215,-0.515
182.75,0.22,-0.775
182.75,0.225,-1.03
182.75,0.225,-1.28
182.76,0.25,-1.53
182.76,0.26,-1.78
182.76,0.23,-2.005
182.76,0.23,-2.19
182.77,0.225,-2.36
182.77,0.23,-2.47
182.77,0.245,-2.57
182.77,0.25,-2.655
182.78,0.225,-2.75
182.78,0.215,-2.855
182.78,0.2,-2.94
182.79,0.165,-3.035
182.79,0.13,-3.065
182.79,0.065,-3.1
182.79,-0.01,-3.12
182.8,-0.055,-3.155
182.8,-0.11,-3.18
182.8,-0.18,-3.185
182.81,-0.25,-3.18
182.81,-0.335,-3.185
182.81,-0.39,-3.195
182.81,-0.39,-3.2
182.82,-0.38,-3.205
182.82,-0.35,-3.185
182.82,-0.33,-3.165
182.82,-0.32,-3.125
182.83,-0.345,-3.095
182.83,-0.375,-3.045
182.83,-0.41,-2.935
182.84,-0.425,-2.815
182.84,-0.42,-2.68
182.84,-0.395,-2.545
182.84,-0.395,-2.38
182.85,-0.38,-2.175
182.85,-0.38,-1.97
182.85,-0.365,-1.72
182.86,-0.35,-1.47
182.86,-0.34,-1.255
182.86,-0.335,-1.035
182.86,-0.33,-0.82
182.87,-0.34,-0.6
182.87,-0.36,-0.39
182.87,-0.35,-0.2
182.88,-0.355,-0.03
182.88,-0.37,0.11
182.88,-0.39,0.24
182.88,-0.385,0.39
182.89,-0.38,0.53
182.89,-0.37,0.635
182.89,-0.345,0.71
182.89,-0.37,0.76
182.9,-0.375,0.78
182.9,-0.375,0.825
182.9,-0.395,0.865
182.91,-0.385,0.905
182.91,-0.385,0.93
182.91,-0.38,0.96
182.91,-0.39,0.975
182.92,-0.405,1.005
182.92,-0.395,1.04
182.92,-0.39,1.065
182.92,-0.38,1.1
182.93,-0.39,1.115
182.93,-0.4,1.125
182.93,-0.415,1.145
182.94,-0.425,1.18
182.94,-0.415,1.215
182.94,-0.405,1.24
182.94,-0.42,1.26
182.95,-0.425,1.27
182.95,-0.44,1.295
182.95,-0.45,1.325
182.96,-0.44,1.36
182.96,-0.435,1.39
182.96,-0.44,1.42
182.96,-0.44,1.435
182.97,-0.445,1.465
182.97,-0.45,1.515
182.97,-0.44,1.545
182.97,-0.435,1.59
182.98,-0.44,1.605
182.98,-0.45,1.62
182.98,-0.455,1.65
182.99,-0.45,1.69
182.99,-0.445,1.74
182.99,-0.435,1.76
182.99,-0.43,1.78
183,-0.43,1.8
183,-0.435,1.825
183,-0.43,1.855
183.01,-0.41,1.895
183.01,-0.39,1.915
183.01,-0.41,1.945
183.01,-0.395,1.935
183.02,-0.395,1.95
183.02,-0.38,1.965
183.02,-0.37,1.98
183.02,-0.35,1.99
183.03,-0.34,1.985
183.03,-0.34,1.975
183.03,-0.335,1.965
183.04,-0.32,1.97
183.04,-0.31,1.965
183.04,-0.285,1.945
183.04,-0.285,1.92
183.05,-0.275,1.88
183.05,-0.275,1.845
183.05,-0.265,1.825
183.06,-0.24,1.79
183.06,-0.235,1.76
183.06,-0.235,1.705
183.06,-0.245,1.655
183.07,-0.245,1.605
183.07,-0.225,1.555
183.07,-0.21,1.5
183.07,-0.18,1.45
183.08,-0.195,1.4
183.08,-0.185,1.32
183.08,-0.18,1.25
183.09,-0.18,1.185
183.09,-0.175,1.155
183.09,-0.155,1.08
183.09,-0.155,1.01
183.1,-0.15,0.94
183.1,-0.155,0.875
183.1,-0.14,0.825
183.11,-0.135,0.785
183.11,-0.115,0.745
183.11,-0.135,0.68
183.11,-0.135,0.625
183.12,-0.155,0.565
183.12,-0.16,0.54
183.12,-0.155,0.5
183.12,-0.145,0.455
183.13,-0.145,0.415
183.13,-0.16,0.36
183.13,-0.165,0.325
183.14,-0.185,0.295
183.14,-0.185,0.27
183.14,-0.17,0.245
183.14,-0.19,0.21
183.15,-0.19,0.175
183.15,-0.2,0.145
183.15,-0.21,0.135
183.16,-0.195,0.115
183.16,-0.19,0.09
183.16,-0.19,0.08
183.16,-0.205,0.06
183.17,-0.215,0.04
183.17,-0.225,0.035
183.17,-0.205,0.03
183.17,-0.19,0.02
183.18,-0.205,0.01
183.18,-0.21,-0.005
183.18,-0.225,-0.01
183.19,-0.235,-0.01
183.19,-0.23,-0.005
183.19,-0.235,0
183.19,-0.23,-0.015
183.2,-0.25,-0.025
183.2,-0.25,-0.035
183.2,-0.245,-0.02
183.21,-0.25,-0.02
183.21,-0.225,-0.02
183.21,-0.235,-0.02
183.21,-0.23,-0.035
183.22,-0.245,-0.035
183.22,-0.245,-0.035
183.22,-0.23,-0.03
183.22,-0.23,-0.035
183.23,-0.23,-0.045
183.23,-0.23,-0.04
183.23,-0.24,-0.04
183.24,-0.24,-0.03
183.24,-0.245,-0.02
183.24,-0.235,-0.02
183.24,-0.245,-0.025
183.25,-0.23,-0.04
183.25,-0.25,-0.04
183.25,-0.255,-0.045
183.26,-0.245,-0.03
183.26,-0.245,-0.035
183.26,-0.245,-0.04
183.26,-0.255,-0.05
183.27,-0.26,-0.065
183.27,-0.265,-0.045
183.27,-0.26,-0.055
183.27,-0.25,-0.045
183.28,-0.255,-0.055
183.28,-0.28,-0.07
183.28,-0.285,-0.06
183.29,-0.275,-0.06
183.29,-0.265,-0.055
183.29,-0.265,-0.055
183.29,-0.265,-0.065
183.3,-0.275,-0.075
183.3,-0.275,-0.08
183.3,-0.285,-0.085
183.31,-0.275,-0.075
183.31,-0.265,-0.09
183.31,-0.275,-0.085
183.31,-0.28,-0.1
183.32,-0.28,-0.11
183.32,-0.275,-0.105
183.32,-0.27,-0.095
183.32,-0.255,-0.095
183.33,-0.27,-0.115
183.33,-0.285,-0.13
183.33,-0.285,-0.145
183.34,-0.285,-0.13
183.34,-0.275,-0.12
183.34,-0.275,-0.13
183.34,-0.29,-0.135
183.35,-0.305,-0.15
183.35,-0.31,-0.155
183.35,-0.32,-0.16
183.36,-0.305,-0.15
183.36,-0.29,-0.15
183.36,-0.3,-0.165
183.36,-0.3,-0.165
183.37,-0.31,-0.185
183.37,-0.305,-0.17
183.37,-0.3,-0.165
183.38,-0.285,-0.17
183.38,-0.295,-0.18
183.38,-0.305,-0.185
183.38,-0.31,-0.195
183.39,-0.305,-0.185
183.39,-0.3,-0.175
183.39,-0.285,-0.18
183.39,-0.285,-0.185
183.4,-0.295,-0.21
183.4,-0.295,-0.22
183.4,-0.295,-0.205
183.41,-0.285,-0.19
183.41,-0.295,-0.195
183.41,-0.31,-0.205
183.41,-0.3,-0.215
183.42,-0.31,-0.225
183.42,-0.31,-0.225
183.42,-0.3,-0.22
183.42,-0.285,-0.21
183.43,-0.28,-0.21
183.43,-0.295,-0.21
183.43,-0.295,-0.22
183.44,-0.305,-0.225
183.44,-0.3,-0.21
183.44,-0.29,-0.215
183.44,-0.305,-0.215
183.45,-0.32,-0.23
183.45,-0.315,-0.235
183.45,-0.315,-0.23
183.46,-0.31,-0.2
183.46,-0.285,-0.22
183.46,-0.28,-0.21
183.46,-0.295,-0.23
183.47,-0.29,-0.24
183.47,-0.32,-0.225
183.47,-0.3,-0.22
183.47,-0.315,-0.205
183.48,-0.325,-0.22
183.48,-0.32,-0.225
183.48,-0.32,-0.23
183.49,-0.305,-0.24
183.49,-0.285,-0.225
183.49,-0.285,-0.215
183.49,-0.29,-0.22
183.5,-0.305,-0.23
183.5,-0.31,-0.24
183.5,-0.315,-0.235
183.51,-0.305,-0.225
183.51,-0.31,-0.225
183.51,-0.31,-0.225
183.51,-0.315,-0.22
183.52,-0.31,-0.235
183.52,-0.29,-0.22
183.52,-0.28,-0.21
183.52,-0.28,-0.21
183.53,-0.285,-0.21
183.53,-0.305,-0.215
183.53,-0.28,-0.23
183.54,-0.275,-0.205
183.54,-0.26,-0.17
183.54,-0.24,-0.155
183.54,-0.23,-0.09
183.55,-0.225,0.075
183.55,-0.195,0.43
183.55,-0.16,0.745
183.56,-0.1,0.755
183.56,0,0.495
183.56,0.245,0.29
183.56,0.61,0.215
183.57,0.825,0.17
183.57,0.71,0.145
183.57,0.405,0.12
183.57,0.2,0.075
183.58,0.15,0.01
183.58,0.18,-0.07
183.58,0.18,-0.185
183.59,0.18,-0.315
183.59,0.2,-0.495
183.59,0.22,-0.705
183.59,0.23,-0.935
183.6,0.235,-1.17
183.6,0.22,-1.41
183.6,0.215,-1.65
183.61,0.22,-1.885
183.61,0.215,-2.11
183.61,0.2,-2.27
183.61,0.19,-2.425
183.62,0.175,-2.56
183.62,0.175,-2.65
183.62,0.185,-2.71
183.62,0.165,-2.795
183.63,0.135,-2.9
183.63,0.11,-3.01
183.63,0.075,-3.07
183.64,0.02,-3.1
183.64,-0.055,-3.115
183.64,-0.125,-3.145
183.64,-0.155,-3.165
183.65,-0.205,-3.19
183.65,-0.29,-3.215
183.65,-0.39,-3.2
183.66,-0.46,-3.195
183.66,-0.495,-3.185
183.66,-0.505,-3.19
183.66,-0.49,-3.205
183.67,-0.47,-3.19
183.67,-0.455,-3.165
183.67,-0.44,-3.125
183.67,-0.45,-3.07
183.68,-0.475,-2.995
183.68,-0.485,-2.905
183.68,-0.505,-2.78
183.69,-0.5,-2.63
183.69,-0.485,-2.475
183.69,-0.44,-2.315
183.69,-0.42,-2.11
183.7,-0.39,-1.89
183.7,-0.39,-1.665
183.7,-0.385,-1.425
183.71,-0.365,-1.22
183.71,-0.35,-1.03
183.71,-0.335,-0.82
183.71,-0.345,-0.645
183.72,-0.36,-0.465
183.72,-0.375,-0.28
183.72,-0.375,-0.115
183.72,-0.37,0.03
183.73,-0.385,0.175
183.73,-0.39,0.31
183.73,-0.39,0.425
183.74,-0.38,0.535
183.74,-0.37,0.62
183.74,-0.355,0.675
183.74,-0.37,0.71
183.75,-0.365,0.745
183.75,-0.365,0.77
183.75,-0.37,0.815
183.76,-0.365,0.85
183.76,-0.35,0.89
183.76,-0.34,0.895
183.76,-0.33,0.925
183.77,-0.34,0.94
183.77,-0.355,0.98
183.77,-0.355,1.005
183.77,-0.345,1.03
183.78,-0.35,1.05
183.78,-0.36,1.06
183.78,-0.36,1.09
183.79,-0.355,1.13
183.79,-0.35,1.155
183.79,-0.36,1.175
183.79,-0.37,1.195
183.8,-0.375,1.21
183.8,-0.395,1.235
183.8,-0.4,1.27
183.81,-0.375,1.31
183.81,-0.36,1.335
183.81,-0.37,1.365
183.81,-0.375,1.385
183.82,-0.38,1.415
183.82,-0.385,1.45
183.82,-0.375,1.49
183.82,-0.375,1.52
183.83,-0.38,1.55
183.83,-0.395,1.565
183.83,-0.4,1.585
183.84,-0.4,1.625
183.84,-0.365,1.67
183.84,-0.35,1.695
183.84,-0.345,1.715
183.85,-0.35,1.725
183.85,-0.36,1.745
183.85,-0.36,1.775
183.86,-0.355,1.8
183.86,-0.335,1.83
183.86,-0.32,1.84
183.86,-0.315,1.835
183.87,-0.325,1.855
183.87,-0.31,1.885
183.87,-0.285,1.885
183.88,-0.255,1.895
183.88,-0.24,1.9
183.88,-0.245,1.89
183.88,-0.24,1.885
183.89,-0.245,1.89
183.89,-0.23,1.89
183.89,-0.205,1.87
183.89,-0.205,1.855
183.9,-0.2,1.825
183.9,-0.205,1.795
183.9,-0.21,1.765
183.91,-0.195,1.75
183.91,-0.175,1.715
183.91,-0.185,1.67
183.91,-0.17,1.625
183.92,-0.15,1.575
183.92,-0.13,1.54
183.92,-0.095,1.485
183.92,-0.09,1.435
183.93,-0.09,1.385
183.93,-0.095,1.315
183.93,-0.1,1.255
183.94,-0.095,1.2
183.94,-0.07,1.145
183.94,-0.085,1.075
183.94,-0.09,1.025
183.95,-0.09,0.945
183.95,-0.105,0.89
183.95,-0.09,0.835
183.96,-0.08,0.795
183.96,-0.05,0.745
183.96,-0.07,0.67
183.96,-0.085,0.63
183.97,-0.1,0.57
183.97,-0.105,0.53
183.97,-0.095,0.5
183.97,-0.085,0.45
183.98,-0.08,0.405
183.98,-0.105,0.36
183.98,-0.12,0.325
183.99,-0.13,0.295
183.99,-0.125,0.285
183.99,-0.125,0.25
183.99,-0.135,0.23
184,-0.135,0.19
184,-0.15,0.16
184,-0.165,0.145
184.01,-0.165,0.13
184.01,-0.16,0.12
184.01,-0.165,0.09
184.01,-0.185,0.065
184.02,-0.185,0.055
184.02,-0.19,0.045
184.02,-0.195,0.04
184.02,-0.195,0.04
184.03,-0.19,0.025
184.03,-0.2,0.01
184.03,-0.215,0
184.04,-0.205,0.01
184.04,-0.21,-0.005
184.04,-0.215,-0.005
184.04,-0.22,-0.01
184.05,-0.24,-0.02
184.05,-0.24,-0.02
184.05,-0.23,-0.02
184.06,-0.23,-0.005
184.06,-0.22,-0.005
184.06,-0.22,-0.015
184.06,-0.225,-0.03
184.07,-0.24,-0.025
184.07,-0.225,-0.025
184.07,-0.225,-0.005
184.07,-0.22,-0.02
184.08,-0.225,-0.015
184.08,-0.23,-0.02
184.08,-0.245,-0.025
184.09,-0.245,-0.02
184.09,-0.245,0
184.09,-0.235,-0.01
184.09,-0.24,-0.02
184.1,-0.255,-0.035
184.1,-0.26,-0.025
184.1,-0.255,-0.02
184.11,-0.245,-0.005
184.11,-0.235,-0.03
184.11,-0.245,-0.025
184.11,-0.25,-0.04
184.12,-0.255,-0.03
184.12,-0.255,-0.025
184.12,-0.25,-0.01
184.12,-0.25,-0.025
184.13,-0.245,-0.035
184.13,-0.265,-0.045
184.13,-0.28,-0.035
184.14,-0.27,-0.04
184.14,-0.26,-0.04
184.14,-0.255,-0.03
184.14,-0.26,-0.035
184.15,-0.285,-0.055
184.15,-0.295,-0.065
184.15,-0.29,-0.065
184.16,-0.27,-0.05
184.16,-0.265,-0.06
184.16,-0.275,-0.065
184.16,-0.285,-0.08
184.17,-0.3,-0.085
184.17,-0.295,-0.08
184.17,-0.285,-0.075
184.17,-0.28,-0.075
184.18,-0.285,-0.09
184.18,-0.285,-0.095
184.18,-0.3,-0.115
184.19,-0.29,-0.11
184.19,-0.285,-0.1
184.19,-0.28,-0.11
184.19,-0.29,-0.11
184.2,-0.295,-0.12
184.2,-0.315,-0.13
184.2,-0.305,-0.135
184.21,-0.3,-0.115
184.21,-0.295,-0.13
184.21,-0.295,-0.13
184.21,-0.3,-0.14
184.22,-0.305,-0.155
184.22,-0.32,-0.155
184.22,-0.31,-0.14
184.22,-0.305,-0.145
184.23,-0.3,-0.15
184.23,-0.305,-0.15
184.23,-0.315,-0.175
184.24,-0.31,-0.16
184.24,-0.32,-0.15
184.24,-0.315,-0.15
184.24,-0.31,-0.165
184.25,-0.32,-0.175
184.25,-0.335,-0.185
184.25,-0.335,-0.18
184.26,-0.325,-0.155
184.26,-0.315,-0.17
184.26,-0.315,-0.175
184.26,-0.325,-0.19
184.27,-0.335,-0.19
184.27,-0.335,-0.19
184.27,-0.32,-0.165
184.27,-0.31,-0.17
184.28,-0.31,-0.175
184.28,-0.32,-0.19
184.28,-0.325,-0.2
184.29,-0.34,-0.185
184.29,-0.32,-0.185
184.29,-0.32,-0.18
184.29,-0.315,-0.185
184.3,-0.325,-0.19
184.3,-0.33,-0.195
184.3,-0.33,-0.18
184.31,-0.325,-0.185
184.31,-0.32,-0.18
184.31,-0.33,-0.18
184.31,-0.325,-0.195
184.32,-0.34,-0.2
184.32,-0.34,-0.185
184.32,-0.325,-0.19
184.32,-0.33,-0.18
184.33,-0.325,-0.185
184.33,-0.335,-0.205
184.33,-0.335,-0.205
184.34,-0.345,-0.2
184.34,-0.335,-0.18
184.34,-0.31,-0.185
184.34,-0.32,-0.185
184.35,-0.335,-0.21
184.35,-0.335,-0.205
184.35,-0.335,-0.215
184.36,-0.325,-0.2
184.36,-0.325,-0.195
184.36,-0.33,-0.195
184.36,-0.335,-0.205
184.37,-0.34,-0.215
184.37,-0.35,-0.195
184.37,-0.325,-0.19
184.38,-0.315,-0.19
184.38,-0.325,-0.195
184.38,-0.345,-0.205
184.38,-0.34,-0.205
184.39,-0.335,-0.2
184.39,-0.315,-0.185
184.39,-0.31,-0.185
184.39,-0.31,-0.185
184.4,-0.32,-0.195
184.4,-0.32,-0.185
184.4,-0.31,-0.155
184.41,-0.3,-0.135
184.41,-0.28,-0.065
184.41,-0.275,0.08
184.41,-0.265,0.395
184.42,-0.235,0.775
184.42,-0.185,0.895
184.42,-0.085,0.695
184.42,0.115,0.425
184.43,0.475,0.295
184.43,0.8,0.24
184.43,0.815,0.19
184.44,0.55,0.185
184.44,0.27,0.15
184.44,0.15,0.125
184.44,0.13,0.065
184.45,0.135,0
184.45,0.14,-0.115
184.45,0.15,-0.245
184.46,0.18,-0.405
184.46,0.19,-0.615
184.46,0.2,-0.84
184.46,0.205,-1.07
184.47,0.205,-1.29
184.47,0.215,-1.53
184.47,0.225,-1.725
184.47,0.215,-1.91
184.48,0.21,-2.075
184.48,0.19,-2.23
184.48,0.185,-2.37
184.49,0.185,-2.475
184.49,0.185,-2.535
184.49,0.18,-2.65
184.49,0.16,-2.77
184.5,0.135,-2.88
184.5,0.085,-2.985
184.5,0.055,-3.045
184.51,0,-3.05
184.51,-0.045,-3.07
184.51,-0.09,-3.105
184.51,-0.13,-3.14
184.52,-0.2,-3.155
184.52,-0.28,-3.16
184.52,-0.37,-3.16
184.52,-0.425,-3.175
184.53,-0.455,-3.165
184.53,-0.455,-3.195
184.53,-0.45,-3.18
184.54,-0.42,-3.17
184.54,-0.405,-3.135
184.54,-0.385,-3.115
184.54,-0.405,-3.085
184.55,-0.425,-3.04
184.55,-0.45,-2.965
184.55,-0.47,-2.845
184.56,-0.465,-2.715
184.56,-0.44,-2.585
184.56,-0.44,-2.455
184.56,-0.445,-2.285
184.57,-0.445,-2.085
184.57,-0.43,-1.85
184.57,-0.415,-1.63
184.57,-0.415,-1.425
184.58,-0.41,-1.215
184.58,-0.41,-1.015
184.58,-0.405,-0.785
184.59,-0.4,-0.56
184.59,-0.415,-0.355
184.59,-0.425,-0.18
184.59,-0.435,-0.025
184.6,-0.445,0.1
184.6,-0.48,0.25
184.6,-0.485,0.37
184.61,-0.47,0.505
184.61,-0.47,0.58
184.61,-0.47,0.65
184.61,-0.475,0.69
184.62,-0.485,0.72
184.62,-0.47,0.76
184.62,-0.475,0.81
184.62,-0.46,0.845
184.63,-0.45,0.875
184.63,-0.455,0.89
184.63,-0.47,0.91
184.64,-0.465,0.95
184.64,-0.465,0.98
184.64,-0.455,1.005
184.64,-0.465,1.01
184.65,-0.475,1.025
184.65,-0.49,1.05
184.65,-0.495,1.085
184.66,-0.485,1.115
184.66,-0.48,1.14
184.66,-0.49,1.16
184.66,-0.495,1.165
184.67,-0.5,1.19
184.67,-0.51,1.225
184.67,-0.495,1.255
184.67,-0.495,1.28
184.68,-0.505,1.31
184.68,-0.52,1.32
184.68,-0.525,1.35
184.69,-0.51,1.39
184.69,-0.52,1.43
184.69,-0.51,1.46
184.69,-0.5,1.475
184.7,-0.5,1.505
184.7,-0.505,1.535
184.7,-0.515,1.58
184.71,-0.5,1.625
184.71,-0.495,1.645
184.71,-0.49,1.655
184.71,-0.505,1.69
184.72,-0.5,1.725
184.72,-0.5,1.75
184.72,-0.49,1.785
184.72,-0.475,1.82
184.73,-0.47,1.83
184.73,-0.475,1.84
184.73,-0.455,1.87
184.74,-0.445,1.885
184.74,-0.415,1.91
184.74,-0.405,1.925
184.74,-0.4,1.935
184.75,-0.395,1.92
184.75,-0.4,1.935
184.75,-0.385,1.935
184.76,-0.375,1.945
184.76,-0.355,1.94
184.76,-0.345,1.91
184.76,-0.345,1.885
184.77,-0.34,1.87
184.77,-0.32,1.855
184.77,-0.3,1.835
184.77,-0.285,1.81
184.78,-0.27,1.775
184.78,-0.28,1.735
184.78,-0.275,1.685
184.79,-0.255,1.63
184.79,-0.24,1.6
184.79,-0.22,1.55
184.79,-0.21,1.48
184.8,-0.215,1.415
184.8,-0.225,1.345
184.8,-0.195,1.28
184.81,-0.18,1.24
184.81,-0.185,1.165
184.81,-0.185,1.11
184.81,-0.17,1.035
184.82,-0.175,0.975
184.82,-0.17,0.905
184.82,-0.165,0.865
184.82,-0.15,0.815
184.83,-0.155,0.75
184.83,-0.17,0.695
184.83,-0.18,0.64
184.84,-0.18,0.585
184.84,-0.18,0.56
184.84,-0.18,0.51
184.84,-0.175,0.46
184.85,-0.2,0.405
184.85,-0.205,0.37
184.85,-0.215,0.34
184.86,-0.205,0.32
184.86,-0.205,0.275
184.86,-0.205,0.24
184.86,-0.23,0.21
184.87,-0.24,0.17
184.87,-0.24,0.15
184.87,-0.245,0.14
184.88,-0.23,0.125
184.88,-0.23,0.11
184.88,-0.255,0.08
184.88,-0.265,0.07
184.89,-0.265,0.05
184.89,-0.26,0.05
184.89,-0.26,0.05
184.89,-0.255,0.05
184.9,-0.27,0.025
184.9,-0.265,0.02
184.9,-0.27,0.015
184.91,-0.27,0.025
184.91,-0.285,0.015
184.91,-0.275,0.015
184.91,-0.28,-0.005
184.92,-0.3,-0.01
184.92,-0.295,-0.01
184.92,-0.28,0.015
184.92,-0.28,0.005
184.93,-0.27,0.005
184.93,-0.29,-0.015
184.93,-0.295,-0.005
184.94,-0.305,-0.01
184.94,-0.29,0.005
184.94,-0.29,0
184.94,-0.29,-0.005
184.95,-0.29,-0.02
184.95,-0.32,-0.025
184.95,-0.305,-0.005
184.96,-0.3,0
184.96,-0.285,-0.015
184.96,-0.28,-0.005
184.96,-0.285,-0.015
184.97,-0.305,-0.02
184.97,-0.295,-0.005
184.97,-0.295,-0.005
184.97,-0.28,0
184.98,-0.295,-0.01
184.98,-0.3,-0.02
184.98,-0.305,-0.02
184.99,-0.305,-0.01
184.99,-0.29,-0.005
184.99,-0.295,-0.005
184.99,-0.3,-0.015
185,-0.315,-0.03
185,-0.315,-0.04
185,-0.325,-0.025
185.01,-0.31,-0.035
185.01,-0.305,-0.04
185.01,-0.305,-0.04
185.01,-0.305,-0.055
185.02,-0.325,-0.055
185.02,-0.325,-0.05
185.02,-0.32,-0.055
185.02,-0.31,-0.065
185.03,-0.315,-0.06
185.03,-0.315,-0.07
185.03,-0.32,-0.085
185.04,-0.325,-0.08
185.04,-0.325,-0.07
185.04,-0.32,-0.09
185.04,-0.32,-0.08
185.05,-0.33,-0.105
185.05,-0.335,-0.11
185.05,-0.34,-0.11
185.06,-0.335,-0.1
185.06,-0.325,-0.11
185.06,-0.325,-0.12
185.06,-0.335,-0.13
185.07,-0.35,-0.135
185.07,-0.345,-0.13
185.07,-0.34,-0.125
185.07,-0.335,-0.135
185.08,-0.34,-0.13
185.08,-0.355,-0.15
185.08,-0.355,-0.155
185.09,-0.35,-0.155
185.09,-0.34,-0.135
185.09,-0.34,-0.145
185.09,-0.335,-0.155
185.1,-0.345,-0.16
185.1,-0.355,-0.17
185.1,-0.355,-0.165
185.11,-0.34,-0.155
185.11,-0.34,-0.165
185.11,-0.345,-0.17
185.11,-0.345,-0.18
185.12,-0.355,-0.175
185.12,-0.355,-0.18
185.12,-0.345,-0.165
185.12,-0.345,-0.175
185.13,-0.345,-0.17
185.13,-0.345,-0.185
185.13,-0.36,-0.195
185.14,-0.345,-0.195
185.14,-0.345,-0.175
185.14,-0.345,-0.185
185.14,-0.35,-0.185
185.15,-0.35,-0.205
185.15,-0.355,-0.2
185.15,-0.35,-0.195
185.16,-0.34,-0.185
185.16,-0.335,-0.195
185.16,-0.335,-0.2
185.16,-0.345,-0.205
185.17,-0.355,-0.215
185.17,-0.355,-0.2
185.17,-0.345,-0.19
185.17,-0.335,-0.2
185.18,-0.335,-0.2
185.18,-0.35,-0.205
185.18,-0.355,-0.21
185.19,-0.36,-0.2
185.19,-0.35,-0.19
185.19,-0.335,-0.2
185.19,-0.34,-0.215
185.2,-0.35,-0.215
185.2,-0.35,-0.215
185.2,-0.345,-0.205
185.21,-0.34,-0.2
185.21,-0.33,-0.21
185.21,-0.335,-0.225
185.21,-0.34,-0.23
185.22,-0.345,-0.22
185.22,-0.33,-0.205
185.22,-0.34,-0.205
185.22,-0.335,-0.215
185.23,-0.325,-0.2
185.23,-0.335,-0.225
185.23,-0.35,-0.22
185.24,-0.345,-0.215
185.24,-0.32,-0.195
185.24,-0.325,-0.205
185.24,-0.325,-0.2
185.25,-0.325,-0.215
185.25,-0.33,-0.195
185.25,-0.33,-0.19
185.26,-0.315,-0.15
185.26,-0.3,-0.105
185.26,-0.3,0
185.26,-0.29,0.28
185.27,-0.26,0.665
185.27,-0.2,0.825
185.27,-0.115,0.64
185.27,0.09,0.36
185.28,0.455,0.23
185.28,0.785,0.185
185.28,0.745,0.15
185.29,0.44,0.115
185.29,0.19,0.09
185.29,0.1,0.05
185.29,0.1,-0.02
185.3,0.11,-0.115
185.3,0.115,-0.27
185.3,0.14,-0.45
185.31,0.15,-0.65
185.31,0.185,-0.905
185.31,0.175,-1.17
185.31,0.175,-1.44
185.32,0.18,-1.7
185.32,0.16,-1.93
185.32,0.165,-2.105
185.32,0.165,-2.29
185.33,0.17,-2.425
185.33,0.18,-2.545
185.33,0.17,-2.625
185.34,0.155,-2.695
185.34,0.16,-2.79
185.34,0.135,-2.895
185.34,0.09,-2.995
185.35,0.045,-3.05
185.35,-0.025,-3.085
185.35,-0.085,-3.095
185.36,-0.12,-3.125
185.36,-0.15,-3.135
185.36,-0.235,-3.165
185.36,-0.325,-3.16
185.37,-0.405,-3.195
185.37,-0.435,-3.165
185.37,-0.4,-3.175
185.38,-0.37,-3.16
185.38,-0.34,-3.165
185.38,-0.34,-3.17
185.38,-0.36,-3.13
185.39,-0.38,-3.07
185.39,-0.41,-3.01
185.39,-0.435,-2.915
185.39,-0.46,-2.81
185.4,-0.46,-2.685
185.4,-0.46,-2.515
185.4,-0.44,-2.3
185.41,-0.43,-2.07
185.41,-0.41,-1.81
185.41,-0.415,-1.54
185.41,-0.41,-1.32
185.42,-0.425,-1.09
185.42,-0.42,-0.855
185.42,-0.415,-0.62
185.42,-0.425,-0.43
185.43,-0.44,-0.25
185.43,-0.465,-0.08
185.43,-0.48,0.05
185.44,-0.49,0.22
185.44,-0.485,0.37
185.44,-0.465,0.495
185.44,-0.46,0.595
185.45,-0.455,0.65
185.45,-0.475,0.695
185.45,-0.48,0.745
185.46,-0.475,0.785
185.46,-0.465,0.81
185.46,-0.47,0.84
185.46,-0.475,0.86
185.47,-0.495,0.9
185.47,-0.5,0.925
185.47,-0.51,0.965
185.47,-0.51,0.99
185.48,-0.525,1.005
185.48,-0.53,1.01
185.48,-0.52,1.04
185.49,-0.525,1.08
185.49,-0.51,1.11
185.49,-0.495,1.14
185.49,-0.495,1.165
185.5,-0.515,1.195
185.5,-0.51,1.21
185.5,-0.505,1.27
185.51,-0.5,1.305
185.51,-0.485,1.33
185.51,-0.49,1.365
185.51,-0.495,1.385
185.52,-0.51,1.42
185.52,-0.51,1.46
185.52,-0.5,1.51
185.52,-0.48,1.55
185.53,-0.485,1.575
185.53,-0.49,1.595
185.53,-0.5,1.62
185.54,-0.505,1.67
185.54,-0.48,1.72
185.54,-0.485,1.74
185.54,-0.475,1.775
185.55,-0.47,1.795
185.55,-0.48,1.83
185.55,-0.46,1.87
185.56,-0.44,1.89
185.56,-0.44,1.905
185.56,-0.415,1.93
185.56,-0.41,1.93
185.57,-0.41,1.95
185.57,-0.395,1.97
185.57,-0.385,1.99
185.57,-0.36,1.995
185.58,-0.35,1.985
185.58,-0.355,1.975
185.58,-0.34,1.965
185.59,-0.325,1.96
185.59,-0.315,1.94
185.59,-0.285,1.92
185.59,-0.28,1.885
185.6,-0.275,1.845
185.6,-0.28,1.81
185.6,-0.265,1.77
185.61,-0.25,1.74
185.61,-0.245,1.68
185.61,-0.23,1.625
185.61,-0.225,1.55
185.62,-0.21,1.515
185.62,-0.185,1.455
185.62,-0.175,1.405
185.62,-0.15,1.345
185.63,-0.17,1.265
185.63,-0.17,1.205
185.63,-0.18,1.125
185.64,-0.175,1.075
185.64,-0.175,1.02
185.64,-0.15,0.945
185.64,-0.15,0.88
185.65,-0.165,0.805
185.65,-0.175,0.74
185.65,-0.18,0.68
185.66,-0.175,0.635
185.66,-0.17,0.59
185.66,-0.165,0.53
185.66,-0.175,0.465
185.67,-0.19,0.42
185.67,-0.19,0.39
185.67,-0.185,0.37
185.67,-0.19,0.315
185.68,-0.185,0.28
185.68,-0.2,0.23
185.68,-0.21,0.21
185.69,-0.215,0.175
185.69,-0.225,0.17
185.69,-0.22,0.15
185.69,-0.225,0.12
185.7,-0.24,0.085
185.7,-0.25,0.075
185.7,-0.225,0.065
185.71,-0.235,0.05
185.71,-0.225,0.05
185.71,-0.24,0.03
185.71,-0.265,0.02
185.72,-0.285,0.01
185.72,-0.27,0.005
185.72,-0.26,0.015
185.72,-0.25,-0.005
185.73,-0.255,-0.01
185.73,-0.255,-0.02
185.73,-0.27,-0.02
185.74,-0.27,-0.015
185.74,-0.28,-0.015
185.74,-0.27,-0.005
185.74,-0.285,-0.02
185.75,-0.3,-0.025
185.75,-0.31,-0.03
185.75,-0.3,-0.015
185.76,-0.29,-0.015
185.76,-0.29,-0.025
185.76,-0.28,-0.035
185.76,-0.275,-0.02
185.77,-0.3,-0.035
185.77,-0.31,-0.02
185.77,-0.305,-0.015
185.77,-0.3,-0.02
185.78,-0.305,-0.025
185.78,-0.31,-0.03
185.78,-0.305,-0.03
185.79,-0.295,-0.03
185.79,-0.275,-0.01
185.79,-0.25,-0.02
185.79,-0.265,-0.02
185.8,-0.285,-0.04
185.8,-0.305,-0.045
185.8,-0.305,-0.035
185.81,-0.3,-0.025
185.81,-0.295,-0.03
185.81,-0.29,-0.045
185.81,-0.295,-0.05
185.82,-0.31,-0.055
185.82,-0.315,-0.05
185.82,-0.315,-0.045
185.82,-0.305,-0.05
185.83,-0.305,-0.055
185.83,-0.315,-0.07
185.83,-0.33,-0.07
185.84,-0.335,-0.07
185.84,-0.34,-0.065
185.84,-0.33,-0.065
185.84,-0.315,-0.085
185.85,-0.305,-0.095
185.85,-0.32,-0.1
185.85,-0.315,-0.095
185.86,-0.31,-0.095
185.86,-0.31,-0.1
185.86,-0.32,-0.11
185.86,-0.34,-0.13
185.87,-0.345,-0.125
185.87,-0.345,-0.125
185.87,-0.32,-0.11
185.88,-0.31,-0.125
185.88,-0.31,-0.135
185.88,-0.325,-0.14
185.88,-0.335,-0.15
185.89,-0.36,-0.145
185.89,-0.345,-0.135
185.89,-0.34,-0.15
185.89,-0.35,-0.155
185.9,-0.34,-0.165
185.9,-0.34,-0.175
185.9,-0.335,-0.17
185.91,-0.325,-0.145
185.91,-0.315,-0.16
185.91,-0.315,-0.165
185.91,-0.34,-0.185
185.92,-0.36,-0.175
185.92,-0.36,-0.185
185.92,-0.345,-0.165
185.92,-0.325,-0.18
185.93,-0.305,-0.195
185.93,-0.315,-0.195
185.93,-0.325,-0.195
185.94,-0.32,-0.195
185.94,-0.335,-0.19
185.94,-0.32,-0.185
185.94,-0.335,-0.19
185.95,-0.335,-0.2
185.95,-0.35,-0.2
185.95,-0.355,-0.2
185.96,-0.35,-0.18
185.96,-0.345,-0.19
185.96,-0.345,-0.21
185.96,-0.34,-0.215
185.97,-0.35,-0.205
185.97,-0.36,-0.195
185.97,-0.355,-0.185
185.97,-0.33,-0.2
185.98,-0.315,-0.195
185.98,-0.315,-0.22
185.98,-0.34,-0.215
185.99,-0.335,-0.22
185.99,-0.34,-0.205
185.99,-0.325,-0.205
185.99,-0.31,-0.21
186,-0.32,-0.225
186,-0.345,-0.22
186,-0.35,-0.215
186.01,-0.345,-0.2
186.01,-0.33,-0.205
186.01,-0.33,-0.215
186.01,-0.32,-0.21
186.02,-0.34,-0.215
186.02,-0.33,-0.205
186.02,-0.31,-0.21
186.02,-0.3,-0.205
186.03,-0.295,-0.22
186.03,-0.305,-0.23
186.03,-0.325,-0.22
186.04,-0.335,-0.22
186.04,-0.33,-0.21
186.04,-0.31,-0.205
186.04,-0.315,-0.2
186.05,-0.32,-0.215
186.05,-0.335,-0.21
186.05,-0.31,-0.2
186.06,-0.29,-0.165
186.06,-0.265,-0.155
186.06,-0.275,-0.085
186.06,-0.28,0.095
186.07,-0.26,0.49
186.07,-0.195,0.83
186.07,-0.11,0.765
186.07,0.1,0.465
186.08,0.48,0.25
186.08,0.86,0.18
186.08,0.895,0.15
186.09,0.575,0.095
186.09,0.25,0.045
186.09,0.12,-0.06
186.09,0.135,-0.2
186.1,0.15,-0.36
186.1,0.14,-0.535
186.1,0.15,-0.715
186.11,0.155,-0.92
186.11,0.16,-1.155
186.11,0.165,-1.36
186.11,0.155,-1.545
186.12,0.125,-1.705
186.12,0.12,-1.84
186.12,0.125,-1.97
186.12,0.13,-2.155
186.13,0.125,-2.35
186.13,0.135,-2.515
186.13,0.12,-2.63
186.14,0.105,-2.71
186.14,0.055,-2.785
186.14,-0.01,-2.89
186.14,-0.08,-2.975
186.15,-0.17,-3.025
186.15,-0.24,-3.065
186.15,-0.285,-3.08
186.16,-0.32,-3.085
186.16,-0.38,-3.115
186.16,-0.49,-3.125
186.16,-0.615,-3.15
186.17,-0.715,-3.15
186.17,-0.73,-3.13
186.17,-0.675,-3.12
186.17,-0.615,-3.12
186.18,-0.565,-3.09
186.18,-0.56,-3.055
186.18,-0.57,-2.98
186.19,-0.58,-2.87
186.19,-0.575,-2.72
186.19,-0.55,-2.575
186.19,-0.52,-2.39
186.2,-0.485,-2.175
186.2,-0.47,-1.925
186.2,-0.435,-1.665
186.21,-0.415,-1.375
186.21,-0.39,-1.125
186.21,-0.405,-0.91
186.21,-0.405,-0.68
186.22,-0.415,-0.47
186.22,-0.405,-0.28
186.22,-0.41,-0.105
186.22,-0.415,0.045
186.23,-0.43,0.185
186.23,-0.43,0.32
186.23,-0.435,0.45
186.24,-0.4,0.535
186.24,-0.395,0.62
186.24,-0.4,0.67
186.24,-0.385,0.7
186.25,-0.385,0.725
186.25,-0.37,0.77
186.25,-0.355,0.805
186.26,-0.345,0.84
186.26,-0.35,0.865
186.26,-0.36,0.895
186.26,-0.36,0.91
186.27,-0.36,0.935
186.27,-0.355,0.97
186.27,-0.355,1
186.27,-0.36,1.035
186.28,-0.385,1.055
186.28,-0.39,1.07
186.28,-0.375,1.1
186.29,-0.365,1.145
186.29,-0.36,1.18
186.29,-0.365,1.2
186.29,-0.365,1.225
186.3,-0.375,1.25
186.3,-0.385,1.29
186.3,-0.365,1.32
186.31,-0.355,1.365
186.31,-0.34,1.39
186.31,-0.34,1.415
186.31,-0.35,1.435
186.32,-0.345,1.475
186.32,-0.33,1.51
186.32,-0.335,1.54
186.32,-0.32,1.57
186.33,-0.325,1.585
186.33,-0.335,1.62
186.33,-0.325,1.64
186.34,-0.335,1.67
186.34,-0.3,1.7
186.34,-0.285,1.73
186.34,-0.28,1.745
186.35,-0.29,1.765
186.35,-0.285,1.785
186.35,-0.28,1.79
186.36,-0.27,1.815
186.36,-0.255,1.82
186.36,-0.265,1.83
186.36,-0.25,1.81
186.37,-0.235,1.8
186.37,-0.205,1.815
186.37,-0.195,1.805
186.38,-0.18,1.795
186.38,-0.17,1.765
186.38,-0.18,1.72
186.38,-0.185,1.695
186.39,-0.17,1.69
186.39,-0.155,1.65
186.39,-0.135,1.6
186.39,-0.13,1.55
186.4,-0.135,1.49
186.4,-0.135,1.435
186.4,-0.115,1.39
186.41,-0.115,1.34
186.41,-0.1,1.27
186.41,-0.1,1.205
186.41,-0.105,1.135
186.42,-0.11,1.075
186.42,-0.11,1.015
186.42,-0.09,0.96
186.42,-0.085,0.9
186.43,-0.09,0.835
186.43,-0.11,0.765
186.43,-0.115,0.695
186.44,-0.11,0.66
186.44,-0.11,0.605
186.44,-0.1,0.56
186.44,-0.105,0.485
186.45,-0.115,0.43
186.45,-0.13,0.395
186.45,-0.14,0.365
186.46,-0.14,0.35
186.46,-0.135,0.3
186.46,-0.165,0.28
186.46,-0.17,0.23
186.47,-0.19,0.2
186.47,-0.19,0.185
186.47,-0.18,0.17
186.47,-0.18,0.15
186.48,-0.205,0.11
186.48,-0.205,0.095
186.48,-0.22,0.075
186.49,-0.225,0.08
186.49,-0.225,0.06
186.49,-0.21,0.055
186.49,-0.225,0.035
186.5,-0.235,0.025
186.5,-0.25,0.01
186.5,-0.245,0.015
186.51,-0.24,0.03
186.51,-0.235,0.02
186.51,-0.235,0.005
186.51,-0.245,-0.01
186.52,-0.26,-0.01
186.52,-0.26,-0.01
186.52,-0.25,0.015
186.52,-0.25,0.005
186.53,-0.255,-0.015
186.53,-0.255,-0.015
186.53,-0.27,-0.02
186.54,-0.27,-0.01
186.54,-0.265,0
186.54,-0.26,-0.01
186.54,-0.25,-0.005
186.55,-0.265,-0.015
186.55,-0.275,-0.02
186.55,-0.275,-0.005
186.56,-0.265,0.005
186.56,-0.265,-0.005
186.56,-0.265,-0.015
186.56,-0.275,-0.015
186.57,-0.275,-0.015
186.57,-0.275,-0.015
186.57,-0.265,0.01
186.57,-0.26,-0.005
186.58,-0.26,-0.01
186.58,-0.285,-0.025
186.58,-0.29,-0.025
186.59,-0.285,-0.01
186.59,-0.28,-0.005
186.59,-0.27,-0.02
186.59,-0.265,-0.03
186.6,-0.29,-0.035
186.6,-0.31,-0.03
186.6,-0.3,-0.03
186.61,-0.295,-0.015
186.61,-0.285,-0.02
186.61,-0.295,-0.03
186.61,-0.295,-0.035
186.62,-0.305,-0.05
186.62,-0.295,-0.04
186.62,-0.29,-0.035
186.62,-0.29,-0.04
186.63,-0.295,-0.06
186.63,-0.31,-0.075
186.63,-0.315,-0.07
186.64,-0.315,-0.065
186.64,-0.31,-0.07
186.64,-0.305,-0.07
186.64,-0.31,-0.085
186.65,-0.315,-0.085
186.65,-0.35,-0.095
186.65,-0.335,-0.085
186.66,-0.325,-0.085
186.66,-0.32,-0.09
186.66,-0.315,-0.11
186.66,-0.335,-0.105
186.67,-0.345,-0.11
186.67,-0.33,-0.12
186.67,-0.33,-0.11
186.67,-0.33,-0.12
186.68,-0.345,-0.135
186.68,-0.355,-0.14
186.68,-0.36,-0.13
186.69,-0.36,-0.13
186.69,-0.35,-0.125
186.69,-0.34,-0.145
186.69,-0.345,-0.14
186.7,-0.36,-0.145
186.7,-0.37,-0.155
186.7,-0.365,-0.16
186.71,-0.35,-0.14
186.71,-0.365,-0.145
186.71,-0.345,-0.165
186.71,-0.36,-0.165
186.72,-0.375,-0.17
186.72,-0.37,-0.16
186.72,-0.38,-0.155
186.72,-0.36,-0.165
186.73,-0.355,-0.17
186.73,-0.365,-0.18
186.73,-0.375,-0.18
186.74,-0.38,-0.175
186.74,-0.365,-0.175
186.74,-0.36,-0.18
186.74,-0.355,-0.18
186.75,-0.37,-0.195
186.75,-0.38,-0.195
186.75,-0.375,-0.18
186.76,-0.365,-0.18
186.76,-0.365,-0.175
186.76,-0.36,-0.19
186.76,-0.36,-0.195
186.77,-0.38,-0.2
186.77,-0.37,-0.185
186.77,-0.365,-0.185
186.77,-0.355,-0.185
186.78,-0.35,-0.195
186.78,-0.37,-0.2
186.78,-0.37,-0.195
186.79,-0.37,-0.195
186.79,-0.37,-0.175
186.79,-0.355,-0.19
186.79,-0.36,-0.19
186.8,-0.37,-0.21
186.8,-0.38,-0.21
186.8,-0.365,-0.2
186.81,-0.365,-0.185
186.81,-0.35,-0.195
186.81,-0.37,-0.2
186.81,-0.365,-0.205
186.82,-0.365,-0.215
186.82,-0.37,-0.19
186.82,-0.355,-0.19
186.82,-0.35,-0.19
186.83,-0.365,-0.19
186.83,-0.37,-0.2
186.83,-0.365,-0.2
186.84,-0.365,-0.19
186.84,-0.355,-0.175
186.84,-0.345,-0.19
186.84,-0.335,-0.18
186.85,-0.36,-0.185
186.85,-0.365,-0.2
186.85,-0.345,-0.18
186.86,-0.34,-0.16
186.86,-0.325,-0.16
186.86,-0.315,-0.145
186.86,-0.32,-0.095
186.87,-0.325,0.085
186.87,-0.29,0.435
186.87,-0.25,0.76
186.88,-0.18,0.73
186.88,-0.055,0.48
186.88,0.22,0.285
186.88,0.595,0.22
186.89,0.77,0.215
186.89,0.575,0.2
186.89,0.26,0.15
186.89,0.075,0.125
186.9,0.04,0.08
186.9,0.065,-0.01
186.9,0.095,-0.11
186.91,0.12,-0.245
186.91,0.135,-0.435
186.91,0.15,-0.65
186.91,0.155,-0.85
186.92,0.16,-1.085
186.92,0.18,-1.31
186.92,0.195,-1.525
186.92,0.185,-1.745
186.93,0.175,-1.92
186.93,0.155,-2.085
186.93,0.16,-2.225
186.94,0.17,-2.34
186.94,0.185,-2.42
186.94,0.17,-2.525
186.94,0.135,-2.655
186.95,0.115,-2.775
186.95,0.075,-2.89
186.95,0.065,-2.945
186.96,0.01,-2.96
186.96,-0.03,-3
186.96,-0.08,-3.04
186.96,-0.115,-3.055
186.97,-0.175,-3.07
186.97,-0.245,-3.08
186.97,-0.32,-3.08
186.97,-0.395,-3.09
186.98,-0.425,-3.095
186.98,-0.445,-3.11
186.98,-0.43,-3.1
186.99,-0.395,-3.085
186.99,-0.38,-3.07
186.99,-0.38,-3.035
186.99,-0.405,-3.005
187,-0.445,-2.95
187,-0.455,-2.85
187,-0.455,-2.715
187.01,-0.465,-2.575
187.01,-0.475,-2.425
187.01,-0.475,-2.275
187.01,-0.475,-2.07
187.02,-0.47,-1.85
187.02,-0.475,-1.59
187.02,-0.465,-1.36
187.02,-0.455,-1.15
187.03,-0.455,-0.945
187.03,-0.46,-0.74
187.03,-0.455,-0.53
187.04,-0.475,-0.345
187.04,-0.48,-0.175
187.04,-0.5,-0.025
187.04,-0.535,0.09
187.05,-0.545,0.23
187.05,-0.555,0.36
187.05,-0.535,0.495
187.06,-0.51,0.61
187.06,-0.51,0.655
187.06,-0.515,0.705
187.06,-0.52,0.735
187.07,-0.54,0.76
187.07,-0.54,0.81
187.07,-0.51,0.845
187.07,-0.505,0.88
187.08,-0.515,0.89
187.08,-0.53,0.915
187.08,-0.54,0.93
187.09,-0.52,0.985
187.09,-0.52,1.02
187.09,-0.515,1.045
187.09,-0.525,1.06
187.1,-0.525,1.09
187.1,-0.525,1.125
187.1,-0.525,1.155
187.11,-0.515,1.19
187.11,-0.51,1.215
187.11,-0.515,1.235
187.11,-0.525,1.265
187.12,-0.535,1.29
187.12,-0.53,1.325
187.12,-0.515,1.365
187.12,-0.51,1.385
187.13,-0.51,1.42
187.13,-0.52,1.455
187.13,-0.52,1.49
187.14,-0.525,1.535
187.14,-0.52,1.585
187.14,-0.515,1.6
187.14,-0.51,1.62
187.15,-0.505,1.65
187.15,-0.515,1.685
187.15,-0.515,1.725
187.16,-0.495,1.765
187.16,-0.48,1.795
187.16,-0.485,1.82
187.16,-0.485,1.825
187.17,-0.48,1.86
187.17,-0.47,1.895
187.17,-0.455,1.93
187.17,-0.435,1.935
187.18,-0.44,1.945
187.18,-0.445,1.96
187.18,-0.43,1.97
187.19,-0.42,1.99
187.19,-0.395,1.995
187.19,-0.385,1.99
187.19,-0.38,1.98
187.2,-0.375,1.96
187.2,-0.375,1.96
187.2,-0.355,1.945
187.21,-0.335,1.945
187.21,-0.315,1.9
187.21,-0.31,1.87
187.21,-0.32,1.825
187.22,-0.32,1.785
187.22,-0.295,1.745
187.22,-0.275,1.7
187.22,-0.26,1.655
187.23,-0.26,1.595
187.23,-0.26,1.535
187.23,-0.26,1.48
187.24,-0.24,1.44
187.24,-0.215,1.37
187.24,-0.22,1.315
187.24,-0.215,1.245
187.25,-0.21,1.185
187.25,-0.21,1.115
187.25,-0.21,1.06
187.26,-0.195,1.02
187.26,-0.195,0.955
187.26,-0.19,0.89
187.26,-0.195,0.825
187.27,-0.21,0.76
187.27,-0.2,0.72
187.27,-0.19,0.675
187.27,-0.195,0.615
187.28,-0.2,0.555
187.28,-0.21,0.51
187.28,-0.22,0.465
187.29,-0.225,0.445
187.29,-0.22,0.4
187.29,-0.22,0.38
187.29,-0.23,0.33
187.3,-0.235,0.3
187.3,-0.25,0.265
187.3,-0.245,0.235
187.31,-0.24,0.235
187.31,-0.26,0.205
187.31,-0.255,0.175
187.31,-0.26,0.14
187.32,-0.28,0.125
187.32,-0.275,0.125
187.32,-0.28,0.12
187.32,-0.27,0.09
187.33,-0.285,0.095
187.33,-0.285,0.055
187.33,-0.29,0.05
187.34,-0.285,0.06
187.34,-0.28,0.065
187.34,-0.275,0.05
187.34,-0.29,0.035
187.35,-0.29,0.03
187.35,-0.315,0.025
187.35,-0.3,0.03
187.36,-0.29,0.045
187.36,-0.29,0.035
187.36,-0.3,0.02
187.36,-0.3,0.015
187.37,-0.305,0.01
187.37,-0.305,0.025
187.37,-0.305,0.03
187.38,-0.29,0.02
187.38,-0.3,0.01
187.38,-0.3,0.005
187.38,-0.315,0
187.39,-0.31,0.01
187.39,-0.305,0.02
187.39,-0.3,0.025
187.39,-0.295,0.015
187.4,-0.315,0.025
187.4,-0.32,0.015
187.4,-0.315,0.025
187.41,-0.31,0.03
187.41,-0.31,0.025
187.41,-0.305,0.015
187.41,-0.31,0
187.42,-0.33,0.005
187.42,-0.32,0.015
187.42,-0.315,0.015
187.42,-0.32,0.01
187.43,-0.325,-0.005
187.43,-0.33,0
187.43,-0.335,-0.02
187.44,-0.325,0
187.44,-0.32,0.005
187.44,-0.315,-0.01
187.44,-0.315,-0.015
187.45,-0.33,-0.025
187.45,-0.345,-0.03
187.45,-0.33,-0.02
187.46,-0.315,-0.005
187.46,-0.325,-0.02
187.46,-0.32,-0.03
187.46,-0.33,-0.045
187.47,-0.34,-0.05
187.47,-0.335,-0.055
187.47,-0.32,-0.035
187.47,-0.325,-0.05
187.48,-0.34,-0.07
187.48,-0.34,-0.065
187.48,-0.36,-0.07
187.49,-0.34,-0.06
187.49,-0.335,-0.055
187.49,-0.34,-0.065
187.49,-0.33,-0.075
187.5,-0.355,-0.09
187.5,-0.35,-0.095
187.5,-0.35,-0.09
187.51,-0.335,-0.075
187.51,-0.345,-0.09
187.51,-0.36,-0.095
187.51,-0.35,-0.105
187.52,-0.355,-0.105
187.52,-0.36,-0.11
187.52,-0.355,-0.105
187.52,-0.345,-0.11
187.53,-0.355,-0.115
187.53,-0.355,-0.12
187.53,-0.365,-0.125
187.54,-0.355,-0.12
187.54,-0.34,-0.115
187.54,-0.345,-0.11
187.54,-0.35,-0.13
187.55,-0.36,-0.145
187.55,-0.36,-0.15
187.55,-0.365,-0.135
187.56,-0.365,-0.125
187.56,-0.355,-0.13
187.56,-0.355,-0.145
187.56,-0.365,-0.145
187.57,-0.37,-0.16
187.57,-0.36,-0.15
187.57,-0.35,-0.135
187.57,-0.355,-0.14
187.58,-0.35,-0.16
187.58,-0.35,-0.17
187.58,-0.36,-0.175
187.59,-0.36,-0.155
187.59,-0.35,-0.15
187.59,-0.34,-0.15
187.59,-0.355,-0.16
187.6,-0.355,-0.175
187.6,-0.36,-0.17
187.6,-0.36,-0.16
187.61,-0.35,-0.15
187.61,-0.36,-0.16
187.61,-0.37,-0.165
187.61,-0.36,-0.175
187.62,-0.37,-0.175
187.62,-0.355,-0.16
187.62,-0.35,-0.155
187.62,-0.345,-0.16
187.63,-0.335,-0.175
187.63,-0.35,-0.18
187.63,-0.365,-0.17
187.64,-0.345,-0.18
187.64,-0.345,-0.16
187.64,-0.34,-0.165
187.64,-0.34,-0.18
187.65,-0.355,-0.18
187.65,-0.35,-0.175
187.65,-0.355,-0.17
187.66,-0.34,-0.155
187.66,-0.335,-0.16
187.66,-0.34,-0.165
187.66,-0.345,-0.18
187.67,-0.345,-0.17
187.67,-0.34,-0.17
187.67,-0.345,-0.17
187.67,-0.34,-0.16
187.68,-0.33,-0.175
187.68,-0.345,-0.17
187.68,-0.34,-0.17
187.69,-0.32,-0.15
187.69,-0.32,-0.125
187.69,-0.315,-0.09
187.69,-0.3,-0.015
187.7,-0.285,0.24
187.7,-0.265,0.65
187.7,-0.21,0.82
187.71,-0.11,0.62
187.71,0.14,0.365
187.71,0.53,0.255
187.71,0.79,0.22
187.72,0.65,0.205
187.72,0.325,0.165
187.72,0.11,0.145
187.72,0.055,0.095
187.73,0.1,0.015
187.73,0.13,-0.105
187.73,0.14,-0.25
187.74,0.155,-0.425
187.74,0.175,-0.64
187.74,0.18,-0.89
187.74,0.195,-1.165
187.75,0.19,-1.415
187.75,0.18,-1.68
187.75,0.18,-1.905
187.76,0.175,-2.07
187.76,0.18,-2.24
187.76,0.2,-2.39
187.76,0.19,-2.5
187.77,0.185,-2.575
187.77,0.18,-2.665
187.77,0.175,-2.76
187.77,0.17,-2.865
187.78,0.135,-2.935
187.78,0.075,-2.99
187.78,-0.01,-3.01
187.79,-0.06,-3.025
187.79,-0.09,-3.025
187.79,-0.135,-3.06
187.79,-0.205,-3.07
187.8,-0.31,-3.085
187.8,-0.385,-3.085
187.8,-0.42,-3.075
187.81,-0.41,-3.055
187.81,-0.38,-3.065
187.81,-0.35,-3.06
187.81,-0.34,-3.06
187.82,-0.355,-3.045
187.82,-0.38,-3.01
187.82,-0.395,-2.935
187.82,-0.42,-2.865
187.83,-0.435,-2.755
187.83,-0.445,-2.625
187.83,-0.445,-2.48
187.84,-0.445,-2.305
187.84,-0.42,-2.095
187.84,-0.405,-1.845
187.84,-0.415,-1.6
187.85,-0.435,-1.345
187.85,-0.44,-1.115
187.85,-0.435,-0.855
187.86,-0.42,-0.62
187.86,-0.435,-0.415
187.86,-0.455,-0.235
187.86,-0.48,-0.08
187.87,-0.51,0.085
187.87,-0.505,0.245
187.87,-0.505,0.41
187.88,-0.485,0.535
187.88,-0.485,0.635
187.88,-0.485,0.705
187.88,-0.495,0.76
187.89,-0.5,0.805
187.89,-0.485,0.855
187.89,-0.48,0.895
187.89,-0.47,0.92
187.9,-0.47,0.94
187.9,-0.48,0.99
187.9,-0.47,1.03
187.91,-0.475,1.06
187.91,-0.465,1.095
187.91,-0.465,1.11
187.91,-0.47,1.135
187.92,-0.465,1.17
187.92,-0.465,1.215
187.92,-0.455,1.26
187.92,-0.45,1.285
187.93,-0.455,1.315
187.93,-0.47,1.34
187.93,-0.485,1.37
187.94,-0.475,1.41
187.94,-0.46,1.46
187.94,-0.46,1.475
187.94,-0.46,1.51
187.95,-0.465,1.53
187.95,-0.475,1.57
187.95,-0.465,1.605
187.96,-0.455,1.655
187.96,-0.455,1.69
187.96,-0.455,1.715
187.96,-0.465,1.74
187.97,-0.47,1.785
187.97,-0.46,1.815
187.97,-0.44,1.86
187.97,-0.44,1.88
187.98,-0.45,1.915
187.98,-0.44,1.93
187.98,-0.445,1.94
187.99,-0.425,1.98
187.99,-0.415,2
187.99,-0.39,2.025
187.99,-0.385,2.025
188,-0.395,2.04
188,-0.395,2.045
188,-0.37,2.065
188.01,-0.35,2.065
188.01,-0.34,2.065
188.01,-0.335,2.055
188.01,-0.335,2.035
188.02,-0.335,2.025
188.02,-0.32,2.01
188.02,-0.305,2
188.02,-0.3,1.965
188.03,-0.29,1.925
188.03,-0.29,1.88
188.03,-0.285,1.83
188.04,-0.255,1.8
188.04,-0.24,1.75
188.04,-0.22,1.705
188.04,-0.23,1.63
188.05,-0.225,1.57
188.05,-0.225,1.505
188.05,-0.215,1.45
188.06,-0.195,1.395
188.06,-0.185,1.325
188.06,-0.185,1.255
188.06,-0.185,1.18
188.07,-0.185,1.125
188.07,-0.185,1.09
188.07,-0.195,1.02
188.07,-0.185,0.95
188.08,-0.205,0.89
188.08,-0.195,0.82
188.08,-0.22,0.765
188.09,-0.205,0.73
188.09,-0.18,0.69
188.09,-0.18,0.635
188.09,-0.185,0.575
188.1,-0.195,0.52
188.1,-0.21,0.485
188.1,-0.205,0.455
188.11,-0.2,0.42
188.11,-0.21,0.385
188.11,-0.205,0.34
188.11,-0.23,0.3
188.12,-0.235,0.275
188.12,-0.23,0.25
188.12,-0.225,0.25
188.12,-0.235,0.215
188.13,-0.25,0.185
188.13,-0.27,0.155
188.13,-0.27,0.14
188.14,-0.26,0.145
188.14,-0.245,0.125
188.14,-0.25,0.115
188.14,-0.245,0.085
188.15,-0.255,0.065
188.15,-0.26,0.055
188.15,-0.26,0.055
188.16,-0.245,0.05
188.16,-0.25,0.04
188.16,-0.25,0.025
188.16,-0.265,0.01
188.17,-0.28,0.015
188.17,-0.275,0.03
188.17,-0.275,0.03
188.17,-0.275,0.025
188.18,-0.28,0.015
188.18,-0.29,0.005
188.18,-0.29,0.01
188.19,-0.285,0.015
188.19,-0.25,0.02
188.19,-0.255,0.02
188.19,-0.265,0.01
188.2,-0.27,0
188.2,-0.29,0.01
188.2,-0.29,0.02
188.21,-0.285,0.02
188.21,-0.28,0.015
188.21,-0.275,0
188.21,-0.29,-0.005
188.22,-0.285,-0.01
188.22,-0.285,0.005
188.22,-0.28,0.02
188.22,-0.265,0.015
188.23,-0.27,0.01
188.23,-0.28,0
188.23,-0.29,0.005
188.24,-0.285,0.01
188.24,-0.28,0.015
188.24,-0.285,0.015
188.24,-0.295,0.005
188.25,-0.3,-0.005
188.25,-0.315,0
188.25,-0.31,0.005
188.26,-0.3,0
188.26,-0.3,0
188.26,-0.3,-0.01
188.26,-0.305,-0.025
188.27,-0.31,-0.025
188.27,-0.3,-0.015
188.27,-0.29,-0.02
188.27,-0.295,-0.005
188.28,-0.305,-0.015
188.28,-0.315,-0.04
188.28,-0.31,-0.03
188.29,-0.295,-0.03
188.29,-0.29,-0.035
188.29,-0.29,-0.05
188.29,-0.295,-0.055
188.3,-0.3,-0.065
188.3,-0.32,-0.065
188.3,-0.3,-0.07
188.31,-0.31,-0.06
188.31,-0.305,-0.06
188.31,-0.32,-0.08
188.31,-0.315,-0.09
188.32,-0.34,-0.095
188.32,-0.335,-0.085
188.32,-0.32,-0.09
188.32,-0.32,-0.09
188.33,-0.325,-0.095
188.33,-0.335,-0.105
188.33,-0.34,-0.115
188.34,-0.315,-0.095
188.34,-0.305,-0.11
188.34,-0.295,-0.11
188.34,-0.31,-0.125
188.35,-0.33,-0.135
188.35,-0.325,-0.14
188.35,-0.325,-0.125
188.36,-0.32,-0.12
188.36,-0.325,-0.125
188.36,-0.335,-0.145
188.36,-0.34,-0.145
188.37,-0.35,-0.14
188.37,-0.33,-0.14
188.37,-0.31,-0.13
188.38,-0.295,-0.135
188.38,-0.315,-0.145
188.38,-0.315,-0.15
188.38,-0.32,-0.15
188.39,-0.32,-0.145
188.39,-0.305,-0.145
188.39,-0.315,-0.15
188.39,-0.32,-0.16
188.4,-0.33,-0.17
188.4,-0.33,-0.16
188.4,-0.31,-0.155
188.41,-0.295,-0.15
188.41,-0.3,-0.16
188.41,-0.31,-0.165
188.41,-0.33,-0.17
188.42,-0.33,-0.16
188.42,-0.31,-0.16
188.42,-0.295,-0.155
188.42,-0.305,-0.16
188.43,-0.315,-0.17
188.43,-0.335,-0.185
188.43,-0.345,-0.175
188.44,-0.33,-0.175
188.44,-0.305,-0.165
188.44,-0.315,-0.17
188.44,-0.32,-0.18
188.45,-0.33,-0.185
188.45,-0.335,-0.185
188.45,-0.325,-0.175
188.46,-0.32,-0.165
188.46,-0.325,-0.17
188.46,-0.325,-0.17
188.46,-0.315,-0.185
188.47,-0.315,-0.18
188.47,-0.315,-0.175
188.47,-0.29,-0.17
188.47,-0.29,-0.16
188.48,-0.275,-0.175
188.48,-0.295,-0.185
188.48,-0.305,-0.17
188.49,-0.3,-0.165
188.49,-0.285,-0.15
188.49,-0.28,-0.16
188.49,-0.28,-0.175
188.5,-0.29,-0.19
188.5,-0.31,-0.165
188.5,-0.315,-0.145
188.51,-0.285,-0.13
188.51,-0.27,-0.095
188.51,-0.27,-0.015
188.51,-0.26,0.205
188.52,-0.245,0.63
188.52,-0.195,0.885
188.52,-0.125,0.725
188.52,0.06,0.445
188.53,0.41,0.29
188.53,0.745,0.25
188.53,0.785,0.24
188.54,0.53,0.21
188.54,0.255,0.185
188.54,0.135,0.13
188.54,0.13,0.07
188.55,0.155,-0.045
188.55,0.15,-0.19
188.55,0.18,-0.37
188.56,0.18,-0.59
188.56,0.21,-0.84
188.56,0.225,-1.09
188.56,0.23,-1.34
188.57,0.23,-1.6
188.57,0.225,-1.825
188.57,0.215,-2
188.57,0.22,-2.165
188.58,0.215,-2.305
188.58,0.22,-2.46
188.58,0.21,-2.54
188.59,0.195,-2.615
188.59,0.165,-2.71
188.59,0.13,-2.795
188.59,0.1,-2.89
188.6,0.055,-2.96
188.6,0,-2.99
188.6,-0.05,-3
188.61,-0.09,-3.01
188.61,-0.135,-3.025
188.61,-0.195,-3.05
188.61,-0.295,-3.07
188.62,-0.4,-3.065
188.62,-0.485,-3.06
188.62,-0.51,-3.05
188.62,-0.495,-3.045
188.63,-0.46,-3.055
188.63,-0.45,-3.04
188.63,-0.445,-3.015
188.64,-0.45,-2.96
188.64,-0.465,-2.88
188.64,-0.49,-2.775
188.64,-0.505,-2.66
188.65,-0.515,-2.53
188.65,-0.485,-2.365
188.65,-0.445,-2.195
188.66,-0.415,-2.005
188.66,-0.39,-1.785
188.66,-0.39,-1.55
188.66,-0.4,-1.335
188.67,-0.405,-1.11
188.67,-0.405,-0.905
188.67,-0.38,-0.705
188.67,-0.365,-0.49
188.68,-0.375,-0.315
188.68,-0.405,-0.16
188.68,-0.43,0.005
188.69,-0.425,0.16
188.69,-0.405,0.305
188.69,-0.39,0.45
188.69,-0.39,0.545
188.7,-0.39,0.62
188.7,-0.385,0.68
188.7,-0.385,0.745
188.71,-0.385,0.77
188.71,-0.38,0.82
188.71,-0.38,0.84
188.71,-0.365,0.875
188.72,-0.37,0.91
188.72,-0.365,0.95
188.72,-0.375,0.985
188.72,-0.375,1.025
188.73,-0.37,1.035
188.73,-0.38,1.07
188.73,-0.365,1.105
188.74,-0.35,1.14
188.74,-0.34,1.18
188.74,-0.35,1.205
188.74,-0.34,1.225
188.75,-0.335,1.24
188.75,-0.33,1.29
188.75,-0.325,1.325
188.76,-0.31,1.36
188.76,-0.305,1.4
188.76,-0.315,1.42
188.76,-0.34,1.445
188.77,-0.34,1.5
188.77,-0.33,1.54
188.77,-0.335,1.57
188.77,-0.32,1.61
188.78,-0.32,1.63
188.78,-0.325,1.645
188.78,-0.31,1.685
188.79,-0.31,1.7
188.79,-0.29,1.75
188.79,-0.29,1.78
188.79,-0.29,1.805
188.8,-0.28,1.82
188.8,-0.28,1.845
188.8,-0.27,1.88
188.81,-0.255,1.91
188.81,-0.265,1.92
188.81,-0.255,1.925
188.81,-0.24,1.935
188.82,-0.23,1.95
188.82,-0.21,1.955
188.82,-0.195,1.96
188.82,-0.195,1.955
188.83,-0.2,1.95
188.83,-0.22,1.935
188.83,-0.235,1.92
188.84,-0.225,1.915
188.84,-0.185,1.895
188.84,-0.165,1.87
188.84,-0.145,1.83
188.85,-0.145,1.795
188.85,-0.15,1.745
188.85,-0.155,1.73
188.86,-0.13,1.675
188.86,-0.11,1.615
188.86,-0.09,1.56
188.86,-0.085,1.49
188.87,-0.095,1.455
188.87,-0.085,1.4
188.87,-0.1,1.355
188.88,-0.105,1.295
188.88,-0.115,1.225
188.88,-0.125,1.16
188.88,-0.125,1.11
188.89,-0.1,1.05
188.89,-0.095,1.005
188.89,-0.075,0.945
188.89,-0.07,0.875
188.9,-0.09,0.815
188.9,-0.1,0.78
188.9,-0.09,0.73
188.91,-0.085,0.695
188.91,-0.1,0.65
188.91,-0.095,0.58
188.91,-0.11,0.54
188.92,-0.105,0.5
188.92,-0.095,0.465
188.92,-0.08,0.435
188.92,-0.09,0.415
188.93,-0.095,0.36
188.93,-0.12,0.33
188.93,-0.15,0.3
188.94,-0.145,0.28
188.94,-0.14,0.26
188.94,-0.145,0.235
188.94,-0.15,0.2
188.95,-0.16,0.175
188.95,-0.155,0.155
188.95,-0.16,0.145
188.96,-0.15,0.145
188.96,-0.15,0.125
188.96,-0.15,0.095
188.96,-0.17,0.075
188.97,-0.18,0.07
188.97,-0.17,0.07
188.97,-0.165,0.07
188.97,-0.18,0.065
188.98,-0.2,0.03
188.98,-0.195,0.035
188.98,-0.205,0.025
188.99,-0.2,0.035
188.99,-0.175,0.04
188.99,-0.18,0.03
188.99,-0.185,0.02
189,-0.195,0.005
189,-0.2,0.005
189,-0.19,0.02
189.01,-0.185,0.025
189.01,-0.195,0.025
189.01,-0.195,0.015
189.01,-0.185,0
189.02,-0.19,0.005
189.02,-0.175,0.025
189.02,-0.17,0.02
189.02,-0.165,0.015
189.03,-0.18,0
189.03,-0.185,0.01
189.03,-0.19,0
189.04,-0.18,0.01
189.04,-0.19,0.02
189.04,-0.185,0.01
189.04,-0.19,0.005
189.05,-0.2,0
189.05,-0.205,-0.005
189.05,-0.185,0.02
189.06,-0.18,0.02
189.06,-0.185,0.01
189.06,-0.2,0.01
189.06,-0.2,0.005
189.07,-0.215,0.01
189.07,-0.205,0.015
189.07,-0.2,0.02
189.07,-0.195,0.015
189.08,-0.195,-0.005
189.08,-0.215,-0.01
189.08,-0.215,-0.005
189.09,-0.225,0
189.09,-0.215,0
189.09,-0.215,-0.015
189.09,-0.215,-0.02
189.1,-0.225,-0.035
189.1,-0.23,-0.02
189.1,-0.22,-0.01
189.11,-0.205,-0.025
189.11,-0.21,-0.03
189.11,-0.23,-0.035
189.11,-0.225,-0.035
189.12,-0.235,-0.04
189.12,-0.225,-0.04
189.12,-0.22,-0.04
189.12,-0.225,-0.04
189.13,-0.235,-0.055
189.13,-0.25,-0.07
189.13,-0.24,-0.07
189.14,-0.235,-0.06
189.14,-0.225,-0.06
189.14,-0.23,-0.07
189.14,-0.24,-0.075
189.15,-0.24,-0.085
189.15,-0.26,-0.09
189.15,-0.25,-0.08
189.16,-0.245,-0.075
189.16,-0.245,-0.085
189.16,-0.245,-0.09
189.16,-0.26,-0.1
189.17,-0.255,-0.105
189.17,-0.25,-0.1
189.17,-0.25,-0.1
189.17,-0.24,-0.11
189.18,-0.255,-0.125
189.18,-0.26,-0.125
189.18,-0.27,-0.11
189.19,-0.265,-0.115
189.19,-0.255,-0.12
189.19,-0.26,-0.12
189.19,-0.265,-0.135
189.2,-0.28,-0.13
189.2,-0.275,-0.14
189.2,-0.275,-0.13
189.21,-0.27,-0.125
189.21,-0.27,-0.135
189.21,-0.26,-0.145
189.21,-0.27,-0.155
189.22,-0.285,-0.145
189.22,-0.275,-0.15
189.22,-0.265,-0.14
189.22,-0.265,-0.14
189.23,-0.27,-0.15
189.23,-0.275,-0.16
189.23,-0.285,-0.16
189.24,-0.265,-0.15
189.24,-0.275,-0.14
189.24,-0.265,-0.15
189.24,-0.275,-0.165
189.25,-0.3,-0.16
189.25,-0.3,-0.155
189.25,-0.28,-0.15
189.26,-0.27,-0.145
189.26,-0.275,-0.15
189.26,-0.275,-0.165
189.26,-0.28,-0.17
189.27,-0.285,-0.17
189.27,-0.28,-0.155
189.27,-0.27,-0.15
189.27,-0.275,-0.15
189.28,-0.275,-0.155
189.28,-0.295,-0.175
189.28,-0.3,-0.165
189.29,-0.29,-0.16
189.29,-0.285,-0.15
189.29,-0.28,-0.145
189.29,-0.28,-0.155
189.3,-0.305,-0.16
189.3,-0.305,-0.17
189.3,-0.295,-0.16
189.31,-0.285,-0.145
189.31,-0.28,-0.15
189.31,-0.28,-0.17
189.31,-0.3,-0.17
189.32,-0.3,-0.165
189.32,-0.3,-0.16
189.32,-0.26,-0.145
189.32,-0.265,-0.15
189.33,-0.275,-0.155
189.33,-0.29,-0.155
189.33,-0.28,-0.145
189.34,-0.27,-0.13
189.34,-0.25,-0.095
189.34,-0.255,-0.07
189.34,-0.25,0.02
189.35,-0.24,0.265
189.35,-0.215,0.685
189.35,-0.18,0.91
189.36,-0.095,0.75
189.36,0.07,0.495
189.36,0.395,0.355
189.36,0.735,0.315
189.37,0.805,0.295
189.37,0.565,0.27
189.37,0.29,0.26
189.38,0.17,0.23
189.38,0.155,0.17
189.38,0.185,0.095
189.38,0.17,-0.005
189.39,0.195,-0.16
189.39,0.225,-0.335
189.39,0.24,-0.56
189.39,0.255,-0.79
189.4,0.265,-1.035
189.4,0.28,-1.26
189.4,0.28,-1.47
189.41,0.295,-1.67
189.41,0.28,-1.865
189.41,0.265,-2.02
189.41,0.27,-2.17
189.42,0.26,-2.31
189.42,0.26,-2.37
189.42,0.24,-2.455
189.42,0.23,-2.555
189.43,0.215,-2.66
189.43,0.19,-2.765
189.43,0.165,-2.845
189.44,0.125,-2.875
189.44,0.08,-2.905
189.44,0.025,-2.935
189.44,-0.015,-2.95
189.45,-0.065,-2.98
189.45,-0.135,-2.985
189.45,-0.22,-2.99
189.46,-0.305,-2.99
189.46,-0.37,-3
189.46,-0.405,-3.005
189.46,-0.41,-3.015
189.47,-0.385,-3
189.47,-0.34,-2.97
189.47,-0.32,-2.96
189.47,-0.32,-2.915
189.48,-0.34,-2.86
189.48,-0.36,-2.785
189.48,-0.385,-2.685
189.49,-0.385,-2.565
189.49,-0.385,-2.43
189.49,-0.4,-2.315
189.49,-0.405,-2.18
189.5,-0.385,-2
189.5,-0.38,-1.785
189.5,-0.375,-1.545
189.51,-0.365,-1.34
189.51,-0.375,-1.14
189.51,-0.39,-0.95
189.51,-0.395,-0.775
189.52,-0.41,-0.57
189.52,-0.41,-0.375
189.52,-0.42,-0.205
189.52,-0.44,-0.055
189.53,-0.46,0.07
189.53,-0.485,0.185
189.53,-0.48,0.325
189.54,-0.475,0.45
189.54,-0.45,0.55
189.54,-0.445,0.62
189.54,-0.455,0.655
189.55,-0.46,0.7
189.55,-0.465,0.75
189.55,-0.445,0.78
189.56,-0.45,0.815
189.56,-0.445,0.85
189.56,-0.45,0.87
189.56,-0.45,0.895
189.57,-0.455,0.93
189.57,-0.45,0.965
189.57,-0.43,1.005
189.57,-0.435,1.025
189.58,-0.44,1.05
189.58,-0.445,1.085
189.58,-0.445,1.115
189.59,-0.445,1.155
189.59,-0.43,1.19
189.59,-0.44,1.22
189.59,-0.44,1.235
189.6,-0.445,1.27
189.6,-0.445,1.305
189.6,-0.43,1.345
189.61,-0.425,1.37
189.61,-0.43,1.4
189.61,-0.42,1.435
189.61,-0.435,1.46
189.62,-0.44,1.495
189.62,-0.44,1.535
189.62,-0.43,1.575
189.62,-0.415,1.605
189.63,-0.42,1.625
189.63,-0.425,1.655
189.63,-0.435,1.695
189.64,-0.42,1.73
189.64,-0.4,1.765
189.64,-0.4,1.795
189.64,-0.405,1.815
189.65,-0.41,1.825
189.65,-0.425,1.855
189.65,-0.415,1.895
189.66,-0.4,1.905
189.66,-0.38,1.93
189.66,-0.385,1.95
189.66,-0.385,1.945
189.67,-0.38,1.975
189.67,-0.36,1.985
189.67,-0.355,2
189.67,-0.335,2.005
189.68,-0.34,2
189.68,-0.345,1.985
189.68,-0.335,1.985
189.69,-0.31,1.975
189.69,-0.3,1.955
189.69,-0.29,1.94
189.69,-0.29,1.91
189.7,-0.295,1.885
189.7,-0.285,1.85
189.7,-0.265,1.825
189.71,-0.255,1.795
189.71,-0.24,1.745
189.71,-0.23,1.695
189.71,-0.24,1.645
189.72,-0.245,1.6
189.72,-0.22,1.56
189.72,-0.215,1.505
189.72,-0.205,1.445
189.73,-0.2,1.36
189.73,-0.205,1.31
189.73,-0.195,1.255
189.74,-0.185,1.205
189.74,-0.18,1.15
189.74,-0.185,1.08
189.74,-0.185,1.015
189.75,-0.19,0.95
189.75,-0.19,0.9
189.75,-0.19,0.86
189.76,-0.175,0.815
189.76,-0.185,0.765
189.76,-0.185,0.715
189.76,-0.205,0.655
189.77,-0.21,0.61
189.77,-0.195,0.575
189.77,-0.185,0.54
189.77,-0.195,0.5
189.78,-0.21,0.445
189.78,-0.21,0.405
189.78,-0.22,0.38
189.79,-0.21,0.35
189.79,-0.205,0.325
189.79,-0.21,0.285
189.79,-0.215,0.26
189.8,-0.235,0.225
189.8,-0.23,0.205
189.8,-0.225,0.2
189.81,-0.22,0.18
189.81,-0.22,0.16
189.81,-0.23,0.135
189.81,-0.245,0.105
189.82,-0.25,0.1
189.82,-0.255,0.1
189.82,-0.245,0.09
189.82,-0.245,0.075
189.83,-0.245,0.06
189.83,-0.26,0.04
189.83,-0.26,0.035
189.84,-0.25,0.04
189.84,-0.23,0.045
189.84,-0.25,0.035
189.84,-0.26,0.01
189.85,-0.26,0
189.85,-0.265,0.015
189.85,-0.25,0.015
189.86,-0.24,0.02
189.86,-0.255,0.02
189.86,-0.255,0.01
189.86,-0.265,0
189.87,-0.27,0
189.87,-0.255,0.025
189.87,-0.255,0.025
189.88,-0.255,0.01
189.88,-0.265,0
189.88,-0.26,-0.01
189.88,-0.27,-0.005
189.89,-0.24,0.01
189.89,-0.25,0.01
189.89,-0.245,0.01
189.89,-0.255,0.01
189.9,-0.26,0
189.9,-0.255,-0.005
189.9,-0.26,0
189.91,-0.25,0.015
189.91,-0.245,0.005
189.91,-0.25,0.01
189.91,-0.275,-0.01
189.92,-0.265,-0.005
189.92,-0.255,0.02
189.92,-0.245,0.015
189.92,-0.26,0.01
189.93,-0.265,0
189.93,-0.275,-0.01
189.93,-0.28,0
189.94,-0.275,0.01
189.94,-0.26,-0.01
189.94,-0.265,-0.015
189.94,-0.275,-0.025
189.95,-0.285,-0.025
189.95,-0.265,-0.03
189.95,-0.26,-0.02
189.96,-0.27,-0.03
189.96,-0.255,-0.03
189.96,-0.275,-0.025
189.96,-0.285,-0.045
189.97,-0.285,-0.035
189.97,-0.27,-0.05
189.97,-0.28,-0.03
189.97,-0.275,-0.04
189.98,-0.285,-0.065
189.98,-0.28,-0.07
189.98,-0.29,-0.075
189.99,-0.28,-0.065
189.99,-0.275,-0.055
189.99,-0.28,-0.08
189.99,-0.285,-0.09
190,-0.29,-0.11
190,-0.3,-0.1
190,-0.3,-0.095
190.01,-0.29,-0.085
190.01,-0.3,-0.095
190.01,-0.3,-0.11
190.01,-0.315,-0.12
190.02,-0.315,-0.115
190.02,-0.305,-0.11
190.02,-0.295,-0.115
190.02,-0.3,-0.11
190.03,-0.295,-0.125
190.03,-0.31,-0.135
190.03,-0.315,-0.13
190.04,-0.315,-0.125
190.04,-0.305,-0.135
190.04,-0.31,-0.13
190.04,-0.31,-0.14
190.05,-0.315,-0.15
190.05,-0.33,-0.15
190.05,-0.315,-0.13
190.06,-0.31,-0.14
190.06,-0.305,-0.145
190.06,-0.32,-0.165
190.06,-0.315,-0.16
190.07,-0.33,-0.155
190.07,-0.31,-0.15
190.07,-0.305,-0.15
190.07,-0.31,-0.15
190.08,-0.325,-0.165
190.08,-0.33,-0.17
190.08,-0.33,-0.16
190.09,-0.325,-0.165
190.09,-0.31,-0.145
190.09,-0.31,-0.165
190.09,-0.315,-0.165
190.1,-0.32,-0.165
190.1,-0.33,-0.165
190.1,-0.315,-0.155
190.11,-0.32,-0.16
190.11,-0.315,-0.16
190.11,-0.32,-0.17
190.11,-0.335,-0.18
190.12,-0.32,-0.175
190.12,-0.33,-0.165
190.12,-0.31,-0.17
190.12,-0.325,-0.165
190.13,-0.315,-0.18
190.13,-0.325,-0.19
190.13,-0.325,-0.18
190.14,-0.315,-0.18
190.14,-0.31,-0.17
190.14,-0.305,-0.175
190.14,-0.31,-0.18
190.15,-0.32,-0.185
190.15,-0.315,-0.175
190.15,-0.31,-0.175
190.16,-0.3,-0.16
190.16,-0.305,-0.155
190.16,-0.31,-0.18
190.16,-0.31,-0.18
190.17,-0.315,-0.17
190.17,-0.305,-0.16
190.17,-0.29,-0.155
190.17,-0.29,-0.155
190.18,-0.295,-0.16
190.18,-0.305,-0.175
190.18,-0.29,-0.15
190.19,-0.29,-0.125
190.19,-0.27,-0.115
190.19,-0.265,-0.07
190.19,-0.25,-0.02
190.2,-0.24,0.21
190.2,-0.225,0.61
190.2,-0.19,0.835
190.21,-0.135,0.715
190.21,0,0.45
190.21,0.305,0.31
190.21,0.635,0.255
190.22,0.75,0.235
190.22,0.575,0.2
190.22,0.325,0.17
190.22,0.18,0.12
190.23,0.145,0.07
190.23,0.175,0
190.23,0.185,-0.11
190.24,0.205,-0.245
190.24,0.22,-0.435
190.24,0.215,-0.685
190.24,0.22,-0.925
190.25,0.225,-1.17
190.25,0.23,-1.425
190.25,0.235,-1.65
190.26,0.24,-1.87
190.26,0.235,-2.06
190.26,0.215,-2.21
190.26,0.22,-2.335
190.27,0.225,-2.43
190.27,0.23,-2.5
190.27,0.225,-2.58
190.27,0.195,-2.68
190.28,0.175,-2.8
190.28,0.14,-2.885
190.28,0.105,-2.935
190.29,0.055,-2.945
190.29,0.01,-2.97
190.29,-0.035,-2.98
190.29,-0.065,-3
190.3,-0.11,-3.03
190.3,-0.185,-3.045
190.3,-0.255,-3.04
190.31,-0.32,-3.035
190.31,-0.36,-3.025
190.31,-0.355,-3.045
190.31,-0.335,-3.04
190.32,-0.315,-3.02
190.32,-0.265,-2.995
190.32,-0.23,-2.97
190.32,-0.23,-2.93
190.33,-0.275,-2.865
190.33,-0.295,-2.795
190.33,-0.325,-2.685
190.34,-0.35,-2.57
190.34,-0.36,-2.45
190.34,-0.38,-2.33
190.34,-0.385,-2.195
190.35,-0.39,-2.03
190.35,-0.395,-1.81
190.35,-0.375,-1.59
190.36,-0.38,-1.38
190.36,-0.395,-1.185
190.36,-0.4,-1.01
190.36,-0.395,-0.81
190.37,-0.405,-0.59
190.37,-0.4,-0.4
190.37,-0.405,-0.23
190.38,-0.435,-0.08
190.38,-0.445,0.06
190.38,-0.465,0.18
190.38,-0.47,0.32
190.39,-0.46,0.455
190.39,-0.45,0.555
190.39,-0.44,0.635
190.39,-0.445,0.685
190.4,-0.445,0.74
190.4,-0.45,0.78
190.4,-0.435,0.825
190.41,-0.425,0.88
190.41,-0.41,0.915
190.41,-0.42,0.93
190.41,-0.42,0.97
190.42,-0.425,1.01
190.42,-0.41,1.04
190.42,-0.405,1.075
190.42,-0.4,1.11
190.43,-0.41,1.125
190.43,-0.42,1.15
190.43,-0.425,1.185
190.44,-0.405,1.23
190.44,-0.395,1.255
190.44,-0.405,1.29
190.44,-0.415,1.305
190.45,-0.425,1.34
190.45,-0.425,1.38
190.45,-0.415,1.425
190.46,-0.41,1.46
190.46,-0.4,1.5
190.46,-0.415,1.515
190.46,-0.42,1.54
190.47,-0.42,1.585
190.47,-0.415,1.625
190.47,-0.395,1.665
190.47,-0.395,1.69
190.48,-0.4,1.715
190.48,-0.405,1.745
190.48,-0.41,1.775
190.49,-0.4,1.82
190.49,-0.385,1.84
190.49,-0.38,1.875
190.49,-0.395,1.885
190.5,-0.39,1.89
190.5,-0.39,1.925
190.5,-0.38,1.96
190.51,-0.36,1.975
190.51,-0.37,1.995
190.51,-0.37,1.99
190.51,-0.375,2
190.52,-0.365,2.015
190.52,-0.345,2.03
190.52,-0.325,2.025
190.52,-0.32,2.025
190.53,-0.32,2.01
190.53,-0.305,1.975
190.53,-0.31,1.98
190.54,-0.305,1.965
190.54,-0.275,1.95
190.54,-0.26,1.925
190.54,-0.26,1.88
190.55,-0.275,1.835
190.55,-0.265,1.81
190.55,-0.265,1.775
190.56,-0.26,1.73
190.56,-0.255,1.675
190.56,-0.255,1.605
190.56,-0.255,1.56
190.57,-0.23,1.505
190.57,-0.225,1.46
190.57,-0.195,1.405
190.57,-0.185,1.345
190.58,-0.19,1.28
190.58,-0.2,1.215
190.58,-0.2,1.165
190.59,-0.195,1.11
190.59,-0.19,1.05
190.59,-0.195,0.985
190.59,-0.2,0.92
190.6,-0.21,0.855
190.6,-0.195,0.82
190.6,-0.185,0.76
190.61,-0.18,0.725
190.61,-0.185,0.67
190.61,-0.21,0.62
190.61,-0.22,0.565
190.62,-0.22,0.53
190.62,-0.215,0.5
190.62,-0.22,0.465
190.62,-0.21,0.43
190.63,-0.215,0.39
190.63,-0.225,0.34
190.63,-0.215,0.33
190.64,-0.22,0.305
190.64,-0.215,0.28
190.64,-0.225,0.265
190.64,-0.235,0.22
190.65,-0.245,0.195
190.65,-0.26,0.18
190.65,-0.24,0.16
190.66,-0.24,0.14
190.66,-0.24,0.13
190.66,-0.25,0.09
190.66,-0.245,0.07
190.67,-0.255,0.07
190.67,-0.255,0.06
190.67,-0.255,0.065
190.67,-0.265,0.045
190.68,-0.27,0.035
190.68,-0.26,0.015
190.68,-0.275,0.015
190.69,-0.27,0.015
190.69,-0.255,0.015
190.69,-0.235,-0.005
190.69,-0.245,-0.015
190.7,-0.25,-0.02
190.7,-0.26,-0.01
190.7,-0.25,-0.02
190.71,-0.245,-0.02
190.71,-0.255,-0.03
190.71,-0.27,-0.04
190.71,-0.28,-0.03
190.72,-0.275,-0.04
190.72,-0.275,-0.02
190.72,-0.265,-0.015
190.72,-0.26,-0.02
190.73,-0.255,-0.035
190.73,-0.27,-0.03
190.73,-0.27,-0.025
190.74,-0.26,-0.02
190.74,-0.255,-0.005
190.74,-0.26,-0.025
190.74,-0.275,-0.035
190.75,-0.275,-0.02
190.75,-0.265,-0.025
190.75,-0.255,-0.01
190.76,-0.235,-0.005
190.76,-0.24,-0.015
190.76,-0.25,-0.02
190.76,-0.255,-0.03
190.77,-0.25,-0.025
190.77,-0.24,-0.015
190.77,-0.235,-0.01
190.77,-0.25,-0.01
190.78,-0.27,-0.02
190.78,-0.285,-0.035
190.78,-0.28,-0.025
190.79,-0.275,-0.01
190.79,-0.265,-0.025
190.79,-0.275,-0.045
190.79,-0.275,-0.025
190.8,-0.28,-0.05
190.8,-0.28,-0.04
190.8,-0.265,-0.04
190.81,-0.275,-0.035
190.81,-0.275,-0.055
190.81,-0.295,-0.065
190.81,-0.3,-0.07
190.82,-0.31,-0.075
190.82,-0.3,-0.055
190.82,-0.28,-0.06
190.82,-0.28,-0.06
190.83,-0.285,-0.075
190.83,-0.285,-0.09
190.83,-0.3,-0.09
190.84,-0.28,-0.08
190.84,-0.28,-0.09
190.84,-0.29,-0.085
190.84,-0.3,-0.1
190.85,-0.29,-0.11
190.85,-0.29,-0.1
190.85,-0.285,-0.105
190.86,-0.28,-0.11
190.86,-0.265,-0.105
190.86,-0.275,-0.12
190.86,-0.29,-0.13
190.87,-0.28,-0.12
190.87,-0.275,-0.11
190.87,-0.26,-0.12
190.88,-0.275,-0.13
190.88,-0.295,-0.135
190.88,-0.32,-0.145
190.88,-0.33,-0.15
190.89,-0.34,-0.12
190.89,-0.33,-0.135
190.89,-0.325,-0.145
190.89,-0.315,-0.165
190.9,-0.31,-0.165
190.9,-0.29,-0.16
190.9,-0.295,-0.15
190.91,-0.28,-0.16
190.91,-0.3,-0.15
190.91,-0.31,-0.17
190.91,-0.32,-0.17
190.92,-0.315,-0.16
190.92,-0.31,-0.17
190.92,-0.285,-0.165
190.92,-0.285,-0.16
190.93,-0.275,-0.175
190.93,-0.275,-0.18
190.93,-0.285,-0.175
190.94,-0.29,-0.155
190.94,-0.295,-0.165
190.94,-0.295,-0.17
190.94,-0.295,-0.185
190.95,-0.295,-0.195
190.95,-0.295,-0.185
190.95,-0.29,-0.18
190.96,-0.295,-0.18
190.96,-0.3,-0.18
190.96,-0.305,-0.185
190.96,-0.305,-0.19
190.97,-0.295,-0.185
190.97,-0.295,-0.175
190.97,-0.29,-0.185
190.97,-0.31,-0.185
190.98,-0.33,-0.2
190.98,-0.32,-0.195
190.98,-0.32,-0.18
190.99,-0.285,-0.175
190.99,-0.27,-0.18
190.99,-0.275,-0.175
190.99,-0.28,-0.19
191,-0.29,-0.205
191,-0.28,-0.18
191,-0.29,-0.175
191.01,-0.27,-0.18
191.01,-0.28,-0.185
191.01,-0.29,-0.19
191.01,-0.295,-0.195
191.02,-0.31,-0.18
191.02,-0.3,-0.16
191.02,-0.31,-0.155
191.02,-0.31,-0.155
191.03,-0.31,-0.16
191.03,-0.295,-0.15
191.03,-0.275,-0.14
191.04,-0.25,-0.135
191.04,-0.24,-0.13
191.04,-0.245,-0.125
191.04,-0.26,-0.135
191.05,-0.265,-0.135
191.05,-0.27,-0.105
191.05,-0.25,-0.025
191.06,-0.22,0.19
191.06,-0.2,0.54
191.06,-0.16,0.75
191.06,-0.115,0.625
191.07,0.015,0.385
191.07,0.275,0.265
191.07,0.62,0.21
191.07,0.775,0.165
191.08,0.615,0.115
191.08,0.345,0.06
191.08,0.18,0.01
191.09,0.17,-0.035
191.09,0.2,-0.125
191.09,0.205,-0.26
191.09,0.2,-0.4
191.1,0.21,-0.585
191.1,0.22,-0.78
191.1,0.24,-0.955
191.11,0.265,-1.14
191.11,0.265,-1.34
191.11,0.25,-1.565
191.11,0.22,-1.79
191.12,0.175,-1.955
191.12,0.17,-2.085
191.12,0.175,-2.215
191.12,0.185,-2.345
191.13,0.2,-2.445
191.13,0.195,-2.535
191.13,0.215,-2.615
191.14,0.22,-2.695
191.14,0.225,-2.78
191.14,0.195,-2.855
191.14,0.135,-2.91
191.15,0.07,-2.94
191.15,0.005,-2.955
191.15,-0.02,-2.95
191.16,-0.025,-2.97
191.16,-0.075,-2.985
191.16,-0.18,-3.01
191.16,-0.295,-3.01
191.17,-0.4,-3.005
191.17,-0.455,-3
191.17,-0.445,-2.99
191.17,-0.44,-2.995
191.18,-0.405,-3.005
191.18,-0.38,-2.99
191.18,-0.385,-2.945
191.19,-0.39,-2.88
191.19,-0.415,-2.805
191.19,-0.435,-2.72
191.19,-0.465,-2.625
191.2,-0.47,-2.49
191.2,-0.48,-2.34
191.2,-0.445,-2.19
191.21,-0.435,-2.02
191.21,-0.435,-1.82
191.21,-0.43,-1.61
191.21,-0.445,-1.39
191.22,-0.46,-1.17
191.22,-0.46,-0.985
191.22,-0.445,-0.775
191.22,-0.43,-0.595
191.23,-0.415,-0.435
191.23,-0.405,-0.275
191.23,-0.415,-0.115
191.24,-0.42,0.035
191.24,-0.415,0.165
191.24,-0.435,0.285
191.24,-0.455,0.385
191.25,-0.435,0.495
191.25,-0.43,0.595
191.25,-0.385,0.665
191.26,-0.37,0.725
191.26,-0.385,0.755
191.26,-0.4,0.79
191.26,-0.4,0.815
191.27,-0.39,0.875
191.27,-0.385,0.91
191.27,-0.365,0.94
191.27,-0.355,0.975
191.28,-0.345,1
191.28,-0.335,1.03
191.28,-0.345,1.065
191.29,-0.33,1.11
191.29,-0.315,1.14
191.29,-0.325,1.16
191.29,-0.335,1.195
191.3,-0.33,1.23
191.3,-0.325,1.265
191.3,-0.305,1.295
191.31,-0.29,1.34
191.31,-0.285,1.38
191.31,-0.29,1.395
191.31,-0.315,1.42
191.32,-0.31,1.455
191.32,-0.315,1.505
191.32,-0.285,1.545
191.32,-0.29,1.575
191.33,-0.305,1.605
191.33,-0.31,1.63
191.33,-0.305,1.66
191.34,-0.285,1.72
191.34,-0.275,1.74
191.34,-0.285,1.76
191.34,-0.29,1.785
191.35,-0.29,1.795
191.35,-0.27,1.845
191.35,-0.255,1.88
191.36,-0.25,1.89
191.36,-0.255,1.915
191.36,-0.26,1.92
191.36,-0.26,1.92
191.37,-0.255,1.935
191.37,-0.24,1.96
191.37,-0.235,1.96
191.38,-0.235,1.955
191.38,-0.22,1.935
191.38,-0.21,1.92
191.38,-0.21,1.915
191.39,-0.19,1.91
191.39,-0.18,1.88
191.39,-0.175,1.85
191.39,-0.175,1.805
191.4,-0.17,1.78
191.4,-0.15,1.74
191.4,-0.14,1.7
191.41,-0.135,1.655
191.41,-0.14,1.605
191.41,-0.14,1.545
191.41,-0.14,1.48
191.42,-0.105,1.435
191.42,-0.09,1.38
191.42,-0.075,1.32
191.42,-0.105,1.265
191.43,-0.11,1.18
191.43,-0.12,1.13
191.43,-0.13,1.075
191.44,-0.125,1.02
191.44,-0.11,0.96
191.44,-0.1,0.905
191.44,-0.095,0.83
191.45,-0.12,0.785
191.45,-0.13,0.735
191.45,-0.14,0.685
191.46,-0.125,0.635
191.46,-0.125,0.59
191.46,-0.135,0.535
191.46,-0.145,0.495
191.47,-0.145,0.445
191.47,-0.135,0.42
191.47,-0.11,0.38
191.47,-0.115,0.335
191.48,-0.15,0.3
191.48,-0.155,0.25
191.48,-0.16,0.235
191.49,-0.16,0.215
191.49,-0.175,0.185
191.49,-0.175,0.16
191.49,-0.175,0.12
191.5,-0.195,0.11
191.5,-0.19,0.09
191.5,-0.19,0.085
191.51,-0.17,0.08
191.51,-0.175,0.05
191.51,-0.19,0.025
191.51,-0.215,0.01
191.52,-0.21,0.005
191.52,-0.2,-0.005
191.52,-0.195,0
191.52,-0.21,-0.02
191.53,-0.22,-0.03
191.53,-0.22,-0.035
191.53,-0.215,-0.035
191.54,-0.225,-0.03
191.54,-0.22,-0.04
191.54,-0.225,-0.035
191.54,-0.235,-0.055
191.55,-0.245,-0.06
191.55,-0.235,-0.045
191.55,-0.22,-0.05
191.56,-0.205,-0.055
191.56,-0.205,-0.055
191.56,-0.195,-0.065
191.56,-0.205,-0.075
191.57,-0.2,-0.055
191.57,-0.2,-0.045
191.57,-0.2,-0.045
191.57,-0.215,-0.04
191.58,-0.205,-0.06
191.58,-0.23,-0.05
191.58,-0.225,-0.045
191.59,-0.22,-0.045
191.59,-0.2,-0.04
191.59,-0.2,-0.045
191.59,-0.205,-0.045
191.6,-0.22,-0.04
191.6,-0.22,-0.045
191.6,-0.205,-0.035
191.61,-0.21,-0.035
191.61,-0.205,-0.035
191.61,-0.21,-0.05
191.61,-0.22,-0.05
191.62,-0.22,-0.05
191.62,-0.225,-0.045
191.62,-0.22,-0.03
191.62,-0.21,-0.04
191.63,-0.23,-0.055
191.63,-0.245,-0.05
191.63,-0.235,-0.045
191.64,-0.23,-0.035
191.64,-0.23,-0.04
191.64,-0.235,-0.04
191.64,-0.235,-0.055
191.65,-0.245,-0.06
191.65,-0.25,-0.07
191.65,-0.245,-0.055
191.66,-0.245,-0.055
191.66,-0.25,-0.06
191.66,-0.25,-0.065
191.66,-0.26,-0.08
191.67,-0.255,-0.075
191.67,-0.245,-0.065
191.67,-0.245,-0.075
191.67,-0.25,-0.09
191.68,-0.26,-0.095
191.68,-0.265,-0.1
191.68,-0.27,-0.095
191.69,-0.26,-0.095
191.69,-0.255,-0.09
191.69,-0.26,-0.11
191.69,-0.27,-0.12
191.7,-0.285,-0.135
191.7,-0.275,-0.13
191.7,-0.27,-0.115
191.71,-0.255,-0.12
191.71,-0.26,-0.135
191.71,-0.28,-0.15
191.71,-0.29,-0.15
191.72,-0.285,-0.135
191.72,-0.275,-0.135
191.72,-0.27,-0.135
191.72,-0.28,-0.145
191.73,-0.295,-0.16
191.73,-0.305,-0.165
191.73,-0.295,-0.16
191.74,-0.295,-0.145
191.74,-0.29,-0.155
191.74,-0.28,-0.17
191.74,-0.295,-0.17
191.75,-0.3,-0.19
191.75,-0.305,-0.17
191.75,-0.29,-0.165
191.76,-0.285,-0.16
191.76,-0.29,-0.16
191.76,-0.305,-0.17
191.76,-0.295,-0.175
191.77,-0.3,-0.18
191.77,-0.28,-0.17
191.77,-0.29,-0.17
191.77,-0.285,-0.17
191.78,-0.305,-0.19
191.78,-0.305,-0.195
191.78,-0.3,-0.18
191.79,-0.29,-0.18
191.79,-0.28,-0.175
191.79,-0.29,-0.185
191.79,-0.295,-0.2
191.8,-0.305,-0.2
191.8,-0.295,-0.195
191.8,-0.29,-0.185
191.81,-0.29,-0.18
191.81,-0.295,-0.18
191.81,-0.3,-0.2
191.81,-0.31,-0.205
191.82,-0.315,-0.185
191.82,-0.305,-0.175
191.82,-0.295,-0.175
191.82,-0.3,-0.19
191.83,-0.3,-0.185
191.83,-0.305,-0.195
191.83,-0.32,-0.17
191.84,-0.305,-0.165
191.84,-0.275,-0.17
191.84,-0.27,-0.16
191.84,-0.28,-0.165
191.85,-0.295,-0.16
191.85,-0.3,-0.145
191.85,-0.29,-0.13
191.86,-0.285,-0.13
191.86,-0.285,-0.12
191.86,-0.285,-0.14
191.86,-0.29,-0.15
191.87,-0.285,-0.145
191.87,-0.25,-0.13
191.87,-0.235,-0.12
191.88,-0.235,-0.085
191.88,-0.23,0.055
191.88,-0.215,0.42
191.88,-0.17,0.785
191.89,-0.115,0.755
191.89,-0.005,0.475
191.89,0.275,0.265
191.89,0.645,0.195
191.9,0.79,0.15
191.9,0.575,0.135
191.9,0.28,0.105
191.91,0.135,0.075
191.91,0.105,0.03
191.91,0.15,-0.05
191.91,0.17,-0.15
191.92,0.175,-0.28
191.92,0.2,-0.425
191.92,0.23,-0.635
191.92,0.225,-0.855
191.93,0.22,-1.07
191.93,0.22,-1.305
191.93,0.21,-1.55
191.94,0.225,-1.74
191.94,0.225,-1.91
191.94,0.22,-2.075
191.94,0.22,-2.21
191.95,0.23,-2.32
191.95,0.225,-2.42
191.95,0.24,-2.525
191.96,0.235,-2.64
191.96,0.215,-2.74
191.96,0.18,-2.815
191.96,0.12,-2.86
191.97,0.07,-2.865
191.97,0.04,-2.88
191.97,0.015,-2.905
191.97,-0.04,-2.93
191.98,-0.125,-2.95
191.98,-0.22,-2.975
191.98,-0.305,-2.96
191.99,-0.325,-2.97
191.99,-0.315,-2.98
191.99,-0.29,-2.975
191.99,-0.265,-2.975
192,-0.28,-2.95
192,-0.315,-2.88
192,-0.34,-2.805
192.01,-0.37,-2.685
192.01,-0.415,-2.57
192.01,-0.44,-2.455
192.01,-0.455,-2.335
192.02,-0.44,-2.16
192.02,-0.435,-1.98
192.02,-0.415,-1.76
192.02,-0.44,-1.535
192.03,-0.425,-1.325
192.03,-0.44,-1.115
192.03,-0.455,-0.9
192.04,-0.45,-0.685
192.04,-0.445,-0.495
192.04,-0.465,-0.32
192.04,-0.49,-0.17
192.05,-0.505,-0.045
192.05,-0.515,0.115
192.05,-0.505,0.255
192.06,-0.505,0.375
192.06,-0.49,0.495
192.06,-0.485,0.56
192.06,-0.5,0.62
192.07,-0.5,0.685
192.07,-0.485,0.74
192.07,-0.465,0.78
192.07,-0.47,0.81
192.08,-0.47,0.84
192.08,-0.47,0.875
192.08,-0.455,0.92
192.09,-0.46,0.975
192.09,-0.445,0.995
192.09,-0.445,1.025
192.09,-0.45,1.055
192.1,-0.45,1.095
192.1,-0.44,1.135
192.1,-0.435,1.175
192.11,-0.425,1.215
192.11,-0.425,1.25
192.11,-0.445,1.275
192.11,-0.45,1.315
192.12,-0.445,1.36
192.12,-0.445,1.405
192.12,-0.42,1.445
192.12,-0.43,1.465
192.13,-0.43,1.5
192.13,-0.45,1.515
192.13,-0.435,1.575
192.14,-0.43,1.605
192.14,-0.405,1.65
192.14,-0.41,1.69
192.14,-0.42,1.71
192.15,-0.425,1.745
192.15,-0.41,1.775
192.15,-0.395,1.81
192.16,-0.39,1.83
192.16,-0.39,1.855
192.16,-0.385,1.87
192.16,-0.395,1.87
192.17,-0.4,1.895
192.17,-0.38,1.92
192.17,-0.375,1.92
192.17,-0.36,1.92
192.18,-0.355,1.91
192.18,-0.36,1.9
192.18,-0.355,1.89
192.19,-0.34,1.89
192.19,-0.32,1.86
192.19,-0.31,1.83
192.19,-0.31,1.795
192.2,-0.305,1.765
192.2,-0.295,1.725
192.2,-0.285,1.7
192.21,-0.27,1.64
192.21,-0.265,1.585
192.21,-0.26,1.52
192.21,-0.265,1.455
192.22,-0.255,1.405
192.22,-0.245,1.34
192.22,-0.22,1.275
192.22,-0.235,1.205
192.23,-0.23,1.135
192.23,-0.245,1.06
192.23,-0.245,1.005
192.24,-0.23,0.96
192.24,-0.235,0.9
192.24,-0.23,0.83
192.24,-0.24,0.76
192.25,-0.25,0.71
192.25,-0.25,0.66
192.25,-0.24,0.61
192.26,-0.255,0.565
192.26,-0.245,0.52
192.26,-0.25,0.48
192.26,-0.265,0.425
192.27,-0.26,0.39
192.27,-0.255,0.37
192.27,-0.255,0.33
192.27,-0.265,0.29
192.28,-0.27,0.245
192.28,-0.3,0.215
192.28,-0.29,0.2
192.29,-0.29,0.185
192.29,-0.28,0.165
192.29,-0.29,0.13
192.29,-0.3,0.1
192.3,-0.305,0.08
192.3,-0.315,0.085
192.3,-0.31,0.075
192.31,-0.3,0.07
192.31,-0.3,0.04
192.31,-0.31,0.025
192.31,-0.32,0.02
192.32,-0.315,0.02
192.32,-0.31,0.015
192.32,-0.305,0.02
192.32,-0.295,0.005
192.33,-0.315,-0.015
192.33,-0.325,-0.025
192.33,-0.325,-0.015
192.34,-0.315,-0.005
192.34,-0.315,-0.02
192.34,-0.32,-0.02
192.34,-0.325,-0.03
192.35,-0.325,-0.035
192.35,-0.32,-0.04
192.35,-0.31,-0.025
192.36,-0.305,-0.01
192.36,-0.3,-0.02
192.36,-0.315,-0.025
192.36,-0.325,-0.03
192.37,-0.31,-0.02
192.37,-0.305,-0.01
192.37,-0.295,-0.005
192.38,-0.305,-0.02
192.38,-0.305,-0.025
192.38,-0.305,-0.02
192.38,-0.305,-0.015
192.39,-0.295,-0.005
192.39,-0.295,0.005
192.39,-0.285,-0.005
192.39,-0.305,-0.01
192.4,-0.315,-0.015
192.4,-0.315,0.01
192.4,-0.3,0.005
192.41,-0.305,0.005
192.41,-0.31,0.005
192.41,-0.325,-0.005
192.41,-0.325,-0.01
192.42,-0.325,0
192.42,-0.325,0.01
192.42,-0.3,0.005
192.42,-0.29,0.005
192.43,-0.31,-0.01
192.43,-0.315,-0.03
192.43,-0.315,-0.03
192.44,-0.31,-0.01
192.44,-0.3,-0.015
192.44,-0.305,-0.015
192.44,-0.315,-0.03
192.45,-0.32,-0.03
192.45,-0.345,-0.04
192.45,-0.33,-0.03
192.46,-0.32,-0.04
192.46,-0.33,-0.04
192.46,-0.325,-0.065
192.46,-0.345,-0.065
192.47,-0.34,-0.06
192.47,-0.34,-0.055
192.47,-0.325,-0.06
192.47,-0.33,-0.075
192.48,-0.34,-0.085
192.48,-0.345,-0.09
192.48,-0.37,-0.095
192.49,-0.335,-0.085
192.49,-0.33,-0.09
192.49,-0.335,-0.1
192.49,-0.345,-0.105
192.5,-0.355,-0.115
192.5,-0.35,-0.105
192.5,-0.36,-0.105
192.51,-0.345,-0.11
192.51,-0.335,-0.115
192.51,-0.36,-0.135
192.51,-0.365,-0.14
192.52,-0.365,-0.13
192.52,-0.35,-0.135
192.52,-0.34,-0.14
192.52,-0.35,-0.135
192.53,-0.37,-0.15
192.53,-0.37,-0.16
192.53,-0.365,-0.155
192.54,-0.355,-0.14
192.54,-0.355,-0.14
192.54,-0.36,-0.15
192.54,-0.37,-0.155
192.55,-0.37,-0.175
192.55,-0.36,-0.17
192.55,-0.36,-0.15
192.56,-0.355,-0.155
192.56,-0.355,-0.16
192.56,-0.36,-0.175
192.56,-0.375,-0.18
192.57,-0.38,-0.175
192.57,-0.35,-0.175
192.57,-0.34,-0.175
192.57,-0.35,-0.165
192.58,-0.355,-0.175
192.58,-0.365,-0.175
192.58,-0.36,-0.165
192.59,-0.36,-0.165
192.59,-0.36,-0.155
192.59,-0.36,-0.16
192.59,-0.365,-0.16
192.6,-0.36,-0.155
192.6,-0.36,-0.15
192.6,-0.355,-0.14
192.61,-0.355,-0.13
192.61,-0.355,-0.125
192.61,-0.355,-0.14
192.61,-0.365,-0.13
192.62,-0.36,-0.12
192.62,-0.36,-0.11
192.62,-0.35,-0.125
192.62,-0.34,-0.15
192.63,-0.355,-0.16
192.63,-0.35,-0.185
192.63,-0.33,-0.18
192.64,-0.33,-0.165
192.64,-0.31,-0.175
192.64,-0.295,-0.175
192.64,-0.3,-0.19
192.65,-0.31,-0.21
192.65,-0.31,-0.19
192.65,-0.31,-0.2
192.66,-0.295,-0.2
192.66,-0.295,-0.205
192.66,-0.295,-0.185
192.66,-0.29,-0.115
192.67,-0.27,0.13
192.67,-0.24,0.55
192.67,-0.19,0.795
192.67,-0.13,0.645
192.68,0.04,0.38
192.68,0.39,0.225
192.68,0.725,0.195
192.69,0.705,0.18
192.69,0.395,0.14
192.69,0.12,0.105
192.69,0.035,0.035
192.7,0.05,-0.03
192.7,0.09,-0.12
192.7,0.12,-0.275
192.71,0.125,-0.485
192.71,0.135,-0.73
192.71,0.155,-0.98
192.71,0.16,-1.235
192.72,0.18,-1.47
192.72,0.19,-1.7
192.72,0.19,-1.905
192.72,0.195,-2.045
192.73,0.2,-2.175
192.73,0.215,-2.27
192.73,0.245,-2.33
192.74,0.25,-2.425
192.74,0.255,-2.535
192.74,0.265,-2.645
192.74,0.255,-2.73
192.75,0.21,-2.795
192.75,0.165,-2.81
192.75,0.125,-2.825
192.76,0.095,-2.87
192.76,0.05,-2.9
192.76,-0.03,-2.935
192.76,-0.13,-2.95
192.77,-0.22,-2.965
192.77,-0.265,-2.96
192.77,-0.255,-2.97
192.77,-0.25,-2.995
192.78,-0.24,-2.995
192.78,-0.25,-2.985
192.78,-0.275,-2.915
192.79,-0.305,-2.855
192.79,-0.345,-2.775
192.79,-0.385,-2.69
192.79,-0.425,-2.59
192.8,-0.465,-2.475
192.8,-0.46,-2.325
192.8,-0.46,-2.16
192.81,-0.455,-1.95
192.81,-0.455,-1.715
192.81,-0.465,-1.495
192.81,-0.475,-1.265
192.82,-0.465,-1.035
192.82,-0.475,-0.815
192.82,-0.46,-0.585
192.82,-0.475,-0.37
192.83,-0.495,-0.2
192.83,-0.525,-0.02
192.83,-0.525,0.16
192.84,-0.515,0.31
192.84,-0.505,0.445
192.84,-0.505,0.565
192.84,-0.5,0.64
192.85,-0.505,0.71
192.85,-0.495,0.765
192.85,-0.485,0.835
192.86,-0.47,0.88
192.86,-0.475,0.915
192.86,-0.475,0.96
192.86,-0.47,0.995
192.87,-0.47,1.04
192.87,-0.46,1.095
192.87,-0.45,1.13
192.88,-0.445,1.185
192.88,-0.455,1.195
192.88,-0.46,1.24
192.88,-0.46,1.28
192.89,-0.45,1.34
192.89,-0.435,1.375
192.89,-0.445,1.405
192.89,-0.445,1.43
192.9,-0.45,1.475
192.9,-0.445,1.515
192.9,-0.435,1.56
192.91,-0.43,1.605
192.91,-0.43,1.64
192.91,-0.445,1.66
192.91,-0.45,1.705
192.92,-0.445,1.75
192.92,-0.445,1.795
192.92,-0.43,1.83
192.92,-0.425,1.865
192.93,-0.425,1.89
192.93,-0.44,1.895
192.93,-0.435,1.94
192.94,-0.41,1.965
192.94,-0.4,1.985
192.94,-0.39,2
192.94,-0.395,2
192.95,-0.4,2.005
192.95,-0.38,2.02
192.95,-0.355,2.03
192.96,-0.355,2.03
192.96,-0.355,2.015
192.96,-0.365,1.995
192.96,-0.36,1.97
192.97,-0.355,1.955
192.97,-0.325,1.93
192.97,-0.305,1.9
192.97,-0.31,1.855
192.98,-0.315,1.81
192.98,-0.325,1.755
192.98,-0.305,1.71
192.99,-0.295,1.665
192.99,-0.275,1.62
192.99,-0.27,1.53
192.99,-0.275,1.46
193,-0.275,1.395
193,-0.27,1.34
193,-0.265,1.28
193.01,-0.25,1.22
193.01,-0.245,1.15
193.01,-0.26,1.075
193.01,-0.27,0.995
193.02,-0.265,0.945
193.02,-0.255,0.89
193.02,-0.25,0.825
193.02,-0.245,0.765
193.03,-0.265,0.695
193.03,-0.27,0.64
193.03,-0.265,0.6
193.04,-0.27,0.565
193.04,-0.25,0.505
193.04,-0.26,0.46
193.04,-0.285,0.41
193.05,-0.29,0.355
193.05,-0.285,0.33
193.05,-0.29,0.305
193.06,-0.275,0.275
193.06,-0.285,0.24
193.06,-0.295,0.195
193.06,-0.31,0.175
193.07,-0.325,0.17
193.07,-0.315,0.15
193.07,-0.325,0.145
193.07,-0.33,0.12
193.08,-0.345,0.1
193.08,-0.355,0.07
193.08,-0.345,0.085
193.09,-0.33,0.065
193.09,-0.315,0.055
193.09,-0.3,0.055
193.09,-0.32,0.03
193.1,-0.34,0.025
193.1,-0.335,0.015
193.1,-0.335,0.035
193.11,-0.315,0.02
193.11,-0.32,0.005
193.11,-0.32,-0.01
193.11,-0.34,-0.01
193.12,-0.335,0
193.12,-0.335,0.005
193.12,-0.325,0
193.12,-0.33,0.005
193.13,-0.33,-0.01
193.13,-0.325,-0.025
193.13,-0.32,-0.01
193.14,-0.32,0
193.14,-0.315,-0.01
193.14,-0.32,-0.01
193.14,-0.33,-0.03
193.15,-0.35,-0.015
193.15,-0.35,-0.005
193.15,-0.355,-0.01
193.16,-0.33,0.005
193.16,-0.33,0.005
193.16,-0.325,-0.02
193.16,-0.33,-0.03
193.17,-0.325,-0.015
193.17,-0.32,0
193.17,-0.32,0
193.17,-0.335,0
193.18,-0.345,-0.005
193.18,-0.345,-0.005
193.18,-0.33,0.005
193.19,-0.305,0.02
193.19,-0.295,0.01
193.19,-0.3,0.01
193.19,-0.32,-0.005
193.2,-0.32,-0.005
193.2,-0.335,-0.005
193.2,-0.32,0.01
193.21,-0.315,0.02
193.21,-0.32,0.005
193.21,-0.33,0
193.21,-0.34,-0.005
193.22,-0.345,0.005
193.22,-0.345,0.01
193.22,-0.335,0.01
193.22,-0.345,0
193.23,-0.355,-0.005
193.23,-0.37,-0.025
193.23,-0.385,-0.015
193.24,-0.37,-0.005
193.24,-0.36,-0.025
193.24,-0.35,-0.025
193.24,-0.34,-0.045
193.25,-0.335,-0.045
193.25,-0.34,-0.045
193.25,-0.345,-0.04
193.26,-0.35,-0.05
193.26,-0.36,-0.05
193.26,-0.365,-0.06
193.26,-0.365,-0.075
193.27,-0.365,-0.07
193.27,-0.35,-0.065
193.27,-0.35,-0.065
193.27,-0.345,-0.075
193.28,-0.37,-0.095
193.28,-0.385,-0.095
193.28,-0.38,-0.085
193.29,-0.38,-0.085
193.29,-0.375,-0.095
193.29,-0.365,-0.095
193.29,-0.355,-0.115
193.3,-0.365,-0.115
193.3,-0.36,-0.115
193.3,-0.355,-0.105
193.31,-0.35,-0.11
193.31,-0.35,-0.115
193.31,-0.365,-0.125
193.31,-0.37,-0.13
193.32,-0.355,-0.11
193.32,-0.36,-0.125
193.32,-0.35,-0.14
193.32,-0.37,-0.135
193.33,-0.38,-0.145
193.33,-0.39,-0.15
193.33,-0.375,-0.14
193.34,-0.385,-0.14
193.34,-0.38,-0.135
193.34,-0.385,-0.135
193.34,-0.39,-0.155
193.35,-0.4,-0.15
193.35,-0.39,-0.15
193.35,-0.385,-0.145
193.36,-0.37,-0.13
193.36,-0.37,-0.135
193.36,-0.375,-0.14
193.36,-0.39,-0.14
193.37,-0.38,-0.14
193.37,-0.365,-0.12
193.37,-0.35,-0.125
193.38,-0.34,-0.12
193.38,-0.35,-0.125
193.38,-0.365,-0.12
193.38,-0.36,-0.11
193.39,-0.355,-0.1
193.39,-0.345,-0.105
193.39,-0.34,-0.105
193.39,-0.355,-0.115
193.4,-0.355,-0.125
193.4,-0.36,-0.12
193.4,-0.35,-0.14
193.41,-0.345,-0.145
193.41,-0.35,-0.155
193.41,-0.355,-0.155
193.41,-0.355,-0.16
193.42,-0.335,-0.155
193.42,-0.32,-0.16
193.42,-0.31,-0.17
193.42,-0.315,-0.185
193.43,-0.325,-0.195
193.43,-0.35,-0.21
193.43,-0.34,-0.215
193.44,-0.32,-0.215
193.44,-0.3,-0.215
193.44,-0.295,-0.22
193.44,-0.295,-0.23
193.45,-0.315,-0.23
193.45,-0.315,-0.21
193.45,-0.305,-0.185
193.46,-0.3,-0.165
193.46,-0.3,-0.15
193.46,-0.315,-0.155
193.46,-0.34,-0.1
193.47,-0.335,0.015
193.47,-0.31,0.305
193.47,-0.265,0.67
193.47,-0.215,0.82
193.48,-0.14,0.635
193.48,0.04,0.385
193.48,0.395,0.265
193.49,0.735,0.245
193.49,0.77,0.22
193.49,0.485,0.175
193.49,0.195,0.125
193.5,0.045,0.09
193.5,0.045,0.04
193.5,0.065,-0.045
193.51,0.09,-0.18
193.51,0.095,-0.345
193.51,0.11,-0.55
193.51,0.125,-0.775
193.52,0.155,-0.975
193.52,0.185,-1.195
193.52,0.195,-1.425
193.52,0.195,-1.645
193.53,0.185,-1.83
193.53,0.18,-1.935
193.53,0.22,-2.03
193.54,0.275,-2.11
193.54,0.305,-2.195
193.54,0.305,-2.275
193.54,0.295,-2.39
193.55,0.28,-2.515
193.55,0.29,-2.615
193.55,0.275,-2.69
193.56,0.24,-2.735
193.56,0.165,-2.78
193.56,0.095,-2.815
193.56,0.04,-2.845
193.57,-0.02,-2.875
193.57,-0.08,-2.895
193.57,-0.16,-2.92
193.57,-0.255,-2.935
193.58,-0.34,-2.945
193.58,-0.385,-2.955
193.58,-0.37,-2.955
193.59,-0.35,-2.94
193.59,-0.345,-2.945
193.59,-0.365,-2.925
193.59,-0.4,-2.88
193.6,-0.45,-2.825
193.6,-0.49,-2.73
193.6,-0.52,-2.62
193.61,-0.53,-2.495
193.61,-0.535,-2.365
193.61,-0.535,-2.24
193.61,-0.54,-2.08
193.62,-0.52,-1.89
193.62,-0.48,-1.67
193.62,-0.46,-1.46
193.62,-0.46,-1.24
193.63,-0.465,-1.055
193.63,-0.48,-0.825
193.63,-0.475,-0.625
193.64,-0.465,-0.435
193.64,-0.455,-0.26
193.64,-0.46,-0.1
193.64,-0.48,0.045
193.65,-0.505,0.165
193.65,-0.49,0.3
193.65,-0.495,0.415
193.66,-0.475,0.525
193.66,-0.475,0.62
193.66,-0.475,0.675
193.66,-0.48,0.725
193.67,-0.48,0.785
193.67,-0.45,0.825
193.67,-0.42,0.86
193.67,-0.395,0.895
193.68,-0.4,0.925
193.68,-0.415,0.955
193.68,-0.415,0.995
193.69,-0.4,1.045
193.69,-0.385,1.075
193.69,-0.365,1.095
193.69,-0.36,1.12
193.7,-0.365,1.16
193.7,-0.395,1.205
193.7,-0.405,1.255
193.71,-0.41,1.285
193.71,-0.395,1.315
193.71,-0.36,1.33
193.71,-0.33,1.375
193.72,-0.32,1.415
193.72,-0.315,1.46
193.72,-0.32,1.49
193.72,-0.34,1.525
193.73,-0.36,1.56
193.73,-0.375,1.59
193.73,-0.36,1.625
193.74,-0.33,1.675
193.74,-0.3,1.7
193.74,-0.3,1.72
193.74,-0.32,1.75
193.75,-0.335,1.78
193.75,-0.32,1.81
193.75,-0.315,1.85
193.76,-0.31,1.875
193.76,-0.31,1.89
193.76,-0.3,1.885
193.76,-0.305,1.915
193.77,-0.3,1.945
193.77,-0.29,1.955
193.77,-0.265,1.955
193.77,-0.275,1.96
193.78,-0.265,1.945
193.78,-0.265,1.955
193.78,-0.255,1.945
193.79,-0.245,1.94
193.79,-0.23,1.92
193.79,-0.225,1.895
193.79,-0.235,1.86
193.8,-0.245,1.835
193.8,-0.235,1.805
193.8,-0.22,1.78
193.81,-0.195,1.74
193.81,-0.19,1.695
193.81,-0.185,1.64
193.81,-0.195,1.58
193.82,-0.195,1.535
193.82,-0.185,1.49
193.82,-0.17,1.43
193.82,-0.17,1.365
193.83,-0.17,1.295
193.83,-0.17,1.22
193.83,-0.16,1.175
193.84,-0.155,1.11
193.84,-0.145,1.055
193.84,-0.145,0.98
193.84,-0.165,0.905
193.85,-0.195,0.835
193.85,-0.2,0.795
193.85,-0.195,0.75
193.86,-0.195,0.7
193.86,-0.19,0.635
193.86,-0.215,0.58
193.86,-0.215,0.53
193.87,-0.215,0.485
193.87,-0.21,0.455
193.87,-0.205,0.41
193.88,-0.21,0.375
193.88,-0.235,0.33
193.88,-0.27,0.3
193.88,-0.265,0.28
193.89,-0.275,0.25
193.89,-0.27,0.215
193.89,-0.27,0.19
193.89,-0.275,0.16
193.9,-0.255,0.135
193.9,-0.235,0.13
193.9,-0.225,0.13
193.91,-0.235,0.115
193.91,-0.25,0.085
193.91,-0.29,0.07
193.91,-0.285,0.055
193.92,-0.285,0.055
193.92,-0.275,0.055
193.92,-0.265,0.035
193.92,-0.27,0.02
193.93,-0.27,0.005
193.93,-0.28,0.005
193.93,-0.29,-0.005
193.94,-0.285,-0.005
193.94,-0.265,0.005
193.94,-0.27,-0.01
193.94,-0.27,-0.02
193.95,-0.295,-0.03
193.95,-0.29,-0.02
193.95,-0.295,-0.015
193.96,-0.295,-0.025
193.96,-0.31,-0.03
193.96,-0.31,-0.045
193.96,-0.305,-0.05
193.97,-0.3,-0.025
193.97,-0.29,-0.01
193.97,-0.27,-0.02
193.97,-0.26,-0.02
193.98,-0.28,-0.045
193.98,-0.295,-0.035
193.98,-0.29,-0.02
193.99,-0.295,-0.025
193.99,-0.295,-0.015
193.99,-0.295,-0.01
193.99,-0.295,-0.03
194,-0.31,-0.035
194,-0.305,-0.025
194,-0.295,-0.01
194.01,-0.285,-0.01
194.01,-0.295,-0.015
194.01,-0.3,-0.03
194.01,-0.31,-0.01
194.02,-0.31,-0.01
194.02,-0.305,0.005
194.02,-0.295,0
194.02,-0.29,-0.005
194.03,-0.285,-0.01
194.03,-0.3,-0.02
194.03,-0.32,-0.005
194.04,-0.31,0
194.04,-0.295,0
194.04,-0.305,-0.005
194.04,-0.305,-0.015
194.05,-0.305,-0.015
194.05,-0.32,-0.02
194.05,-0.305,0
194.06,-0.3,-0.005
194.06,-0.3,-0.02
194.06,-0.305,-0.02
194.06,-0.32,-0.03
194.07,-0.305,-0.025
194.07,-0.3,-0.025
194.07,-0.305,-0.025
194.07,-0.31,-0.04
194.08,-0.33,-0.05
194.08,-0.34,-0.05
194.08,-0.325,-0.05
194.09,-0.335,-0.045
194.09,-0.31,-0.055
194.09,-0.31,-0.06
194.09,-0.32,-0.065
194.1,-0.33,-0.065
194.1,-0.33,-0.06
194.1,-0.325,-0.075
194.11,-0.32,-0.07
194.11,-0.315,-0.08
194.11,-0.33,-0.09
194.11,-0.33,-0.105
194.12,-0.325,-0.1
194.12,-0.3,-0.1
194.12,-0.31,-0.085
194.12,-0.325,-0.1
194.13,-0.32,-0.115
194.13,-0.34,-0.12
194.13,-0.335,-0.115
194.14,-0.33,-0.105
194.14,-0.33,-0.105
194.14,-0.33,-0.125
194.14,-0.34,-0.125
194.15,-0.345,-0.135
194.15,-0.335,-0.13
194.15,-0.335,-0.115
194.16,-0.33,-0.115
194.16,-0.325,-0.13
194.16,-0.345,-0.145
194.16,-0.36,-0.15
194.17,-0.355,-0.13
194.17,-0.35,-0.125
194.17,-0.335,-0.14
194.17,-0.345,-0.14
194.18,-0.345,-0.14
194.18,-0.36,-0.145
194.18,-0.36,-0.145
194.19,-0.355,-0.135
194.19,-0.35,-0.135
194.19,-0.355,-0.13
194.19,-0.37,-0.15
194.2,-0.375,-0.14
194.2,-0.365,-0.12
194.2,-0.345,-0.12
194.21,-0.345,-0.115
194.21,-0.35,-0.11
194.21,-0.355,-0.12
194.21,-0.365,-0.1
194.22,-0.365,-0.095
194.22,-0.355,-0.095
194.22,-0.34,-0.1
194.22,-0.345,-0.11
194.23,-0.35,-0.145
194.23,-0.355,-0.155
194.23,-0.33,-0.14
194.24,-0.315,-0.135
194.24,-0.315,-0.15
194.24,-0.315,-0.15
194.24,-0.32,-0.17
194.25,-0.32,-0.185
194.25,-0.32,-0.18
194.25,-0.32,-0.19
194.26,-0.32,-0.21
194.26,-0.33,-0.205
194.26,-0.33,-0.215
194.26,-0.34,-0.22
194.27,-0.335,-0.22
194.27,-0.33,-0.205
194.27,-0.32,-0.2
194.27,-0.325,-0.19
194.28,-0.325,-0.19
194.28,-0.34,-0.175
194.28,-0.34,-0.155
194.29,-0.335,-0.14
194.29,-0.32,-0.125
194.29,-0.33,-0.105
194.29,-0.315,0
194.3,-0.305,0.285
194.3,-0.26,0.68
194.3,-0.205,0.81
194.31,-0.11,0.615
194.31,0.11,0.375
194.31,0.475,0.275
194.31,0.74,0.255
194.32,0.685,0.235
194.32,0.38,0.215
194.32,0.125,0.19
194.32,0.04,0.145
194.33,0.04,0.095
194.33,0.075,0.005
194.33,0.09,-0.105
194.34,0.125,-0.265
194.34,0.155,-0.475
194.34,0.175,-0.68
194.34,0.19,-0.88
194.35,0.195,-1.075
194.35,0.21,-1.27
194.35,0.22,-1.44
194.36,0.24,-1.6
194.36,0.245,-1.71
194.36,0.255,-1.815
194.36,0.275,-1.91
194.37,0.305,-2
194.37,0.32,-2.1
194.37,0.325,-2.23
194.38,0.315,-2.385
194.38,0.295,-2.495
194.38,0.265,-2.585
194.38,0.225,-2.64
194.39,0.185,-2.665
194.39,0.145,-2.705
194.39,0.095,-2.765
194.39,0.035,-2.805
194.4,-0.06,-2.84
194.4,-0.16,-2.86
194.4,-0.25,-2.87
194.41,-0.31,-2.89
194.41,-0.325,-2.915
194.41,-0.32,-2.945
194.41,-0.32,-2.95
194.42,-0.32,-2.92
194.42,-0.34,-2.855
194.42,-0.355,-2.81
194.42,-0.4,-2.73
194.43,-0.45,-2.655
194.43,-0.49,-2.525
194.43,-0.5,-2.405
194.44,-0.495,-2.25
194.44,-0.49,-2.085
194.44,-0.48,-1.905
194.44,-0.48,-1.705
194.45,-0.48,-1.47
194.45,-0.485,-1.245
194.45,-0.47,-1.025
194.46,-0.47,-0.85
194.46,-0.48,-0.65
194.46,-0.5,-0.47
194.46,-0.515,-0.3
194.47,-0.535,-0.125
194.47,-0.53,0.025
194.47,-0.525,0.155
194.47,-0.54,0.265
194.48,-0.545,0.385
194.48,-0.54,0.495
194.48,-0.52,0.585
194.49,-0.51,0.665
194.49,-0.51,0.705
194.49,-0.495,0.74
194.49,-0.505,0.775
194.5,-0.51,0.8
194.5,-0.5,0.84
194.5,-0.495,0.89
194.51,-0.48,0.925
194.51,-0.485,0.955
194.51,-0.49,0.975
194.51,-0.49,1.005
194.52,-0.485,1.05
194.52,-0.48,1.1
194.52,-0.47,1.125
194.52,-0.46,1.155
194.53,-0.475,1.195
194.53,-0.475,1.215
194.53,-0.475,1.265
194.54,-0.46,1.31
194.54,-0.45,1.335
194.54,-0.46,1.37
194.54,-0.465,1.39
194.55,-0.475,1.445
194.55,-0.465,1.485
194.55,-0.455,1.535
194.56,-0.445,1.555
194.56,-0.455,1.59
194.56,-0.455,1.595
194.56,-0.47,1.63
194.57,-0.445,1.68
194.57,-0.435,1.71
194.57,-0.45,1.745
194.57,-0.43,1.77
194.58,-0.43,1.79
194.58,-0.44,1.81
194.58,-0.44,1.86
194.59,-0.42,1.88
194.59,-0.425,1.905
194.59,-0.415,1.9
194.59,-0.415,1.91
194.6,-0.42,1.91
194.6,-0.42,1.925
194.6,-0.385,1.94
194.61,-0.38,1.935
194.61,-0.375,1.925
194.61,-0.385,1.91
194.61,-0.385,1.885
194.62,-0.37,1.875
194.62,-0.36,1.865
194.62,-0.34,1.835
194.62,-0.335,1.805
194.63,-0.335,1.755
194.63,-0.34,1.72
194.63,-0.335,1.695
194.64,-0.315,1.655
194.64,-0.31,1.595
194.64,-0.31,1.54
194.64,-0.3,1.48
194.65,-0.315,1.42
194.65,-0.295,1.365
194.65,-0.28,1.325
194.66,-0.285,1.27
194.66,-0.285,1.195
194.66,-0.275,1.13
194.66,-0.285,1.065
194.67,-0.29,1.015
194.67,-0.28,0.965
194.67,-0.27,0.885
194.67,-0.28,0.83
194.68,-0.285,0.765
194.68,-0.29,0.7
194.68,-0.285,0.665
194.69,-0.275,0.625
194.69,-0.27,0.575
194.69,-0.28,0.52
194.69,-0.285,0.49
194.7,-0.305,0.435
194.7,-0.3,0.41
194.7,-0.305,0.375
194.71,-0.285,0.345
194.71,-0.295,0.3
194.71,-0.305,0.265
194.71,-0.325,0.24
194.72,-0.32,0.215
194.72,-0.32,0.215
194.72,-0.315,0.175
194.72,-0.32,0.145
194.73,-0.325,0.135
194.73,-0.33,0.105
194.73,-0.325,0.105
194.74,-0.33,0.095
194.74,-0.33,0.085
194.74,-0.32,0.07
194.74,-0.33,0.06
194.75,-0.345,0.04
194.75,-0.34,0.035
194.75,-0.315,0.04
194.76,-0.315,0.035
194.76,-0.325,0.015
194.76,-0.34,0.005
194.76,-0.35,0
194.77,-0.335,0.005
194.77,-0.33,0
194.77,-0.325,-0.005
194.77,-0.335,0
194.78,-0.335,-0.02
194.78,-0.345,-0.02
194.78,-0.34,-0.01
194.79,-0.335,0.005
194.79,-0.325,-0.01
194.79,-0.32,-0.015
194.79,-0.335,-0.02
194.8,-0.335,-0.02
194.8,-0.35,-0.01
194.8,-0.335,0
194.81,-0.325,-0.005
194.81,-0.335,-0.01
194.81,-0.335,-0.01
194.81,-0.35,-0.005
194.82,-0.325,0
194.82,-0.32,0.015
194.82,-0.32,0.02
194.82,-0.32,0.005
194.83,-0.32,0
194.83,-0.325,0.01
194.83,-0.31,0.02
194.84,-0.315,0.02
194.84,-0.3,0.03
194.84,-0.305,0.02
194.84,-0.32,0.015
194.85,-0.325,0.01
194.85,-0.325,0.025
194.85,-0.31,0.025
194.86,-0.315,0.035
194.86,-0.31,0.03
194.86,-0.325,0.01
194.86,-0.335,0.02
194.87,-0.33,0.02
194.87,-0.325,0.025
194.87,-0.315,0.015
194.88,-0.315,0
194.88,-0.325,0
194.88,-0.34,-0.005
194.88,-0.33,0.005
194.89,-0.325,0.005
194.89,-0.315,0
194.89,-0.325,-0.005
194.89,-0.335,-0.02
194.9,-0.34,-0.025
194.9,-0.33,-0.02
194.9,-0.33,-0.02
194.91,-0.33,-0.025
194.91,-0.33,-0.035
194.91,-0.34,-0.04
194.91,-0.355,-0.05
194.92,-0.36,-0.05
194.92,-0.345,-0.045
194.92,-0.335,-0.055
194.92,-0.33,-0.055
194.93,-0.345,-0.07
194.93,-0.365,-0.08
194.93,-0.36,-0.065
194.94,-0.34,-0.065
194.94,-0.335,-0.08
194.94,-0.335,-0.08
194.94,-0.345,-0.09
194.95,-0.36,-0.105
194.95,-0.355,-0.095
194.95,-0.35,-0.1
194.96,-0.335,-0.105
194.96,-0.34,-0.11
194.96,-0.36,-0.125
194.96,-0.365,-0.13
194.97,-0.36,-0.115
194.97,-0.34,-0.105
194.97,-0.345,-0.11
194.97,-0.345,-0.115
194.98,-0.355,-0.13
194.98,-0.365,-0.13
194.98,-0.355,-0.125
194.99,-0.36,-0.12
194.99,-0.36,-0.12
194.99,-0.355,-0.11
194.99,-0.365,-0.13
195,-0.38,-0.13
195,-0.375,-0.125
195,-0.37,-0.115
195.01,-0.355,-0.115
195.01,-0.345,-0.105
195.01,-0.37,-0.105
195.01,-0.365,-0.105
195.02,-0.36,-0.09
195.02,-0.36,-0.085
195.02,-0.345,-0.08
195.02,-0.35,-0.09
195.03,-0.375,-0.09
195.03,-0.385,-0.095
195.03,-0.37,-0.085
195.04,-0.365,-0.105
195.04,-0.345,-0.115
195.04,-0.33,-0.14
195.04,-0.34,-0.15
195.05,-0.33,-0.15
195.05,-0.33,-0.145
195.05,-0.315,-0.145
195.06,-0.3,-0.16
195.06,-0.315,-0.17
195.06,-0.315,-0.19
195.06,-0.325,-0.205
195.07,-0.32,-0.2
195.07,-0.32,-0.2
195.07,-0.325,-0.2
195.07,-0.33,-0.21
195.08,-0.345,-0.225
195.08,-0.345,-0.225
195.08,-0.34,-0.205
195.09,-0.335,-0.18
195.09,-0.325,-0.18
195.09,-0.335,-0.185
195.09,-0.35,-0.18
195.1,-0.365,-0.195
195.1,-0.36,-0.185
195.1,-0.355,-0.16
195.11,-0.35,-0.175
195.11,-0.345,-0.175
195.11,-0.35,-0.175
195.11,-0.345,-0.18
195.12,-0.345,-0.145
195.12,-0.325,-0.125
195.12,-0.325,-0.115
195.12,-0.315,-0.06
195.13,-0.295,0.1
195.13,-0.285,0.485
195.13,-0.225,0.835
195.14,-0.15,0.805
195.14,0.02,0.535
195.14,0.365,0.32
195.14,0.74,0.245
195.15,0.82,0.22
195.15,0.545,0.2
195.15,0.205,0.17
195.16,0.06,0.14
195.16,0.05,0.105
195.16,0.07,0.03
195.16,0.085,-0.055
195.17,0.11,-0.17
195.17,0.12,-0.31
195.17,0.15,-0.5
195.17,0.165,-0.705
195.18,0.185,-0.915
195.18,0.19,-1.12
195.18,0.22,-1.34
195.19,0.22,-1.54
195.19,0.235,-1.715
195.19,0.245,-1.85
195.19,0.26,-1.965
195.2,0.28,-2.055
195.2,0.31,-2.15
195.2,0.325,-2.25
195.21,0.325,-2.385
195.21,0.325,-2.52
195.21,0.3,-2.625
195.21,0.255,-2.715
195.22,0.215,-2.75
195.22,0.165,-2.775
195.22,0.13,-2.825
195.22,0.09,-2.87
195.23,0.005,-2.905
195.23,-0.095,-2.94
195.23,-0.185,-2.95
195.24,-0.235,-2.94
195.24,-0.25,-2.955
195.24,-0.23,-2.975
195.24,-0.225,-2.975
195.25,-0.24,-2.965
195.25,-0.245,-2.93
195.25,-0.255,-2.875
195.26,-0.29,-2.805
195.26,-0.32,-2.715
195.26,-0.36,-2.575
195.26,-0.385,-2.425
195.27,-0.385,-2.27
195.27,-0.355,-2.1
195.27,-0.335,-1.92
195.27,-0.345,-1.72
195.28,-0.34,-1.52
195.28,-0.36,-1.28
195.28,-0.365,-1.01
195.29,-0.375,-0.73
195.29,-0.395,-0.48
195.29,-0.4,-0.25
195.29,-0.415,-0.045
195.3,-0.42,0.145
195.3,-0.41,0.29
195.3,-0.41,0.385
195.31,-0.405,0.445
195.31,-0.42,0.505
195.31,-0.44,0.545
195.31,-0.47,0.6
195.32,-0.46,0.65
195.32,-0.455,0.705
195.32,-0.445,0.745
195.32,-0.455,0.77
195.33,-0.46,0.805
195.33,-0.46,0.835
195.33,-0.455,0.875
195.34,-0.445,0.92
195.34,-0.45,0.945
195.34,-0.45,0.985
195.34,-0.45,1
195.35,-0.465,1.025
195.35,-0.455,1.08
195.35,-0.455,1.115
195.36,-0.445,1.16
195.36,-0.445,1.18
195.36,-0.445,1.205
195.36,-0.455,1.24
195.37,-0.45,1.28
195.37,-0.435,1.33
195.37,-0.44,1.365
195.38,-0.44,1.38
195.38,-0.445,1.41
195.38,-0.45,1.45
195.38,-0.45,1.505
195.39,-0.435,1.525
195.39,-0.425,1.575
195.39,-0.43,1.6
195.39,-0.445,1.625
195.4,-0.46,1.65
195.4,-0.435,1.695
195.4,-0.43,1.73
195.41,-0.44,1.765
195.41,-0.42,1.785
195.41,-0.43,1.8
195.41,-0.43,1.83
195.42,-0.425,1.845
195.42,-0.425,1.87
195.42,-0.405,1.88
195.42,-0.4,1.88
195.43,-0.405,1.89
195.43,-0.415,1.88
195.43,-0.405,1.9
195.44,-0.385,1.89
195.44,-0.38,1.885
195.44,-0.375,1.875
195.44,-0.38,1.845
195.45,-0.385,1.815
195.45,-0.38,1.81
195.45,-0.355,1.8
195.46,-0.345,1.76
195.46,-0.34,1.715
195.46,-0.345,1.67
195.46,-0.36,1.62
195.47,-0.355,1.585
195.47,-0.345,1.53
195.47,-0.34,1.485
195.47,-0.33,1.415
195.48,-0.335,1.355
195.48,-0.34,1.285
195.48,-0.335,1.235
195.49,-0.315,1.19
195.49,-0.315,1.11
195.49,-0.31,1.045
195.49,-0.32,0.99
195.5,-0.32,0.925
195.5,-0.305,0.865
195.5,-0.3,0.835
195.51,-0.29,0.765
195.51,-0.29,0.71
195.51,-0.29,0.65
195.51,-0.295,0.6
195.52,-0.3,0.545
195.52,-0.29,0.515
195.52,-0.285,0.475
195.52,-0.3,0.425
195.53,-0.305,0.375
195.53,-0.32,0.33
195.53,-0.32,0.3
195.54,-0.31,0.285
195.54,-0.305,0.245
195.54,-0.31,0.22
195.54,-0.32,0.18
195.55,-0.325,0.155
195.55,-0.315,0.145
195.55,-0.32,0.13
195.56,-0.3,0.11
195.56,-0.305,0.085
195.56,-0.325,0.075
195.56,-0.32,0.055
195.57,-0.32,0.055
195.57,-0.33,0.05
195.57,-0.32,0.045
195.57,-0.32,0.025
195.58,-0.335,0.02
195.58,-0.345,0.01
195.58,-0.36,0.005
195.59,-0.34,0
195.59,-0.335,0.01
195.59,-0.33,-0.01
195.59,-0.34,-0.02
195.6,-0.345,-0.02
195.6,-0.335,-0.005
195.6,-0.32,-0.01
195.61,-0.31,-0.01
195.61,-0.32,-0.02
195.61,-0.33,-0.03
195.61,-0.35,-0.035
195.62,-0.335,-0.025
195.62,-0.33,-0.015
195.62,-0.32,-0.01
195.62,-0.33,-0.025
195.63,-0.345,-0.04
195.63,-0.34,-0.035
195.63,-0.345,-0.025
195.64,-0.325,-0.01
195.64,-0.31,-0.015
195.64,-0.325,-0.03
195.64,-0.335,-0.025
195.65,-0.335,-0.025
195.65,-0.335,-0.015
195.65,-0.32,0
195.66,-0.32,-0.01
195.66,-0.31,-0.005
195.66,-0.32,-0.005
195.66,-0.335,0
195.67,-0.335,0.01
195.67,-0.32,0.02
195.67,-0.305,0.01
195.67,-0.32,0.005
195.68,-0.33,0
195.68,-0.345,-0.005
195.68,-0.33,0.005
195.69,-0.325,0.02
195.69,-0.32,0.005
195.69,-0.315,0.015
195.69,-0.32,0.01
195.7,-0.325,-0.005
195.7,-0.325,0.01
195.7,-0.32,0.01
195.71,-0.33,0
195.71,-0.335,0
195.71,-0.335,-0.005
195.71,-0.355,-0.015
195.72,-0.345,-0.01
195.72,-0.34,0
195.72,-0.345,0
195.72,-0.35,-0.015
195.73,-0.37,-0.025
195.73,-0.375,-0.03
195.73,-0.355,-0.03
195.74,-0.335,-0.025
195.74,-0.32,-0.02
195.74,-0.325,-0.045
195.74,-0.335,-0.05
195.75,-0.345,-0.06
195.75,-0.35,-0.05
195.75,-0.335,-0.04
195.76,-0.33,-0.05
195.76,-0.33,-0.06
195.76,-0.345,-0.06
195.76,-0.365,-0.075
195.77,-0.37,-0.075
195.77,-0.365,-0.065
195.77,-0.36,-0.08
195.77,-0.37,-0.09
195.78,-0.39,-0.095
195.78,-0.385,-0.1
195.78,-0.365,-0.09
195.79,-0.345,-0.09
195.79,-0.325,-0.095
195.79,-0.325,-0.11
195.79,-0.335,-0.125
195.8,-0.35,-0.135
195.8,-0.35,-0.12
195.8,-0.345,-0.11
195.81,-0.35,-0.115
195.81,-0.36,-0.13
195.81,-0.36,-0.135
195.81,-0.375,-0.125
195.82,-0.38,-0.13
195.82,-0.36,-0.125
195.82,-0.355,-0.115
195.82,-0.36,-0.135
195.83,-0.36,-0.145
195.83,-0.375,-0.145
195.83,-0.37,-0.135
195.84,-0.365,-0.135
195.84,-0.35,-0.135
195.84,-0.36,-0.15
195.84,-0.36,-0.145
195.85,-0.355,-0.15
195.85,-0.345,-0.14
195.85,-0.35,-0.13
195.86,-0.34,-0.14
195.86,-0.34,-0.145
195.86,-0.35,-0.16
195.86,-0.365,-0.16
195.87,-0.37,-0.15
195.87,-0.375,-0.155
195.87,-0.38,-0.155
195.88,-0.385,-0.165
195.88,-0.375,-0.17
195.88,-0.355,-0.165
195.88,-0.355,-0.165
195.89,-0.34,-0.15
195.89,-0.35,-0.165
195.89,-0.35,-0.17
195.89,-0.35,-0.18
195.9,-0.355,-0.175
195.9,-0.345,-0.175
195.9,-0.335,-0.15
195.91,-0.34,-0.15
195.91,-0.335,-0.165
195.91,-0.345,-0.175
195.91,-0.345,-0.175
195.92,-0.335,-0.17
195.92,-0.33,-0.155
195.92,-0.325,-0.165
195.92,-0.335,-0.175
195.93,-0.355,-0.16
195.93,-0.37,-0.17
195.93,-0.36,-0.18
195.94,-0.335,-0.155
195.94,-0.325,-0.16
195.94,-0.32,-0.17
195.94,-0.32,-0.17
195.95,-0.345,-0.165
195.95,-0.345,-0.16
195.95,-0.335,-0.145
195.96,-0.325,-0.145
195.96,-0.325,-0.145
195.96,-0.325,-0.145
195.96,-0.315,-0.125
195.97,-0.31,-0.085
195.97,-0.285,0.05
195.97,-0.265,0.35
195.97,-0.235,0.715
195.98,-0.195,0.82
195.98,-0.125,0.63
195.98,0.065,0.42
195.99,0.415,0.335
195.99,0.725,0.275
195.99,0.745,0.235
195.99,0.47,0.185
196,0.195,0.125
196,0.07,0.065
196,0.075,-0.045
196.01,0.105,-0.185
196.01,0.105,-0.35
196.01,0.095,-0.525
196.01,0.085,-0.74
196.02,0.11,-0.96
196.02,0.12,-1.145
196.02,0.125,-1.335
196.02,0.125,-1.49
196.03,0.11,-1.63
196.03,0.1,-1.785
196.03,0.08,-1.94
196.04,0.095,-2.12
196.04,0.105,-2.305
196.04,0.095,-2.455
196.04,0.085,-2.56
196.05,0.06,-2.645
196.05,0.045,-2.71
196.05,0.02,-2.78
196.06,-0.04,-2.855
196.06,-0.1,-2.905
196.06,-0.18,-2.93
196.06,-0.245,-2.95
196.07,-0.3,-2.955
196.07,-0.345,-2.97
196.07,-0.425,-2.98
196.07,-0.52,-2.995
196.08,-0.605,-3.005
196.08,-0.65,-2.995
196.08,-0.65,-2.995
196.09,-0.62,-2.98
196.09,-0.575,-2.97
196.09,-0.545,-2.955
196.09,-0.54,-2.925
196.1,-0.535,-2.88
196.1,-0.535,-2.785
196.1,-0.505,-2.67
196.11,-0.5,-2.57
196.11,-0.49,-2.455
196.11,-0.485,-2.325
196.11,-0.475,-2.165
196.12,-0.47,-1.975
196.12,-0.435,-1.765
196.12,-0.4,-1.565
196.12,-0.37,-1.36
196.13,-0.365,-1.17
196.13,-0.38,-0.96
196.13,-0.385,-0.765
196.14,-0.39,-0.57
196.14,-0.4,-0.405
196.14,-0.415,-0.26
196.14,-0.42,-0.095
196.15,-0.445,0.035
196.15,-0.455,0.185
196.15,-0.45,0.325
196.16,-0.435,0.43
196.16,-0.42,0.525
196.16,-0.415,0.575
196.16,-0.425,0.645
196.17,-0.415,0.7
196.17,-0.405,0.73
196.17,-0.4,0.77
196.17,-0.395,0.79
196.18,-0.39,0.815
196.18,-0.385,0.835
196.18,-0.385,0.875
196.19,-0.38,0.905
196.19,-0.385,0.92
196.19,-0.385,0.94
196.19,-0.4,0.95
196.2,-0.41,0.985
196.2,-0.4,1.03
196.2,-0.375,1.07
196.21,-0.39,1.075
196.21,-0.395,1.1
196.21,-0.4,1.125
196.21,-0.415,1.145
196.22,-0.395,1.185
196.22,-0.36,1.22
196.22,-0.365,1.24
196.22,-0.355,1.265
196.23,-0.37,1.275
196.23,-0.375,1.31
196.23,-0.375,1.34
196.24,-0.38,1.385
196.24,-0.365,1.405
196.24,-0.365,1.43
196.24,-0.35,1.455
196.25,-0.34,1.485
196.25,-0.33,1.51
196.25,-0.33,1.54
196.26,-0.32,1.56
196.26,-0.325,1.57
196.26,-0.325,1.585
196.26,-0.34,1.61
196.27,-0.33,1.635
196.27,-0.315,1.655
196.27,-0.315,1.67
196.27,-0.305,1.69
196.28,-0.315,1.705
196.28,-0.305,1.715
196.28,-0.305,1.74
196.29,-0.285,1.76
196.29,-0.275,1.765
196.29,-0.26,1.77
196.29,-0.25,1.755
196.3,-0.255,1.75
196.3,-0.24,1.755
196.3,-0.235,1.745
196.31,-0.24,1.725
196.31,-0.245,1.71
196.31,-0.255,1.685
196.31,-0.255,1.66
196.32,-0.245,1.65
196.32,-0.235,1.63
196.32,-0.2,1.585
196.32,-0.195,1.545
196.33,-0.19,1.495
196.33,-0.195,1.45
196.33,-0.18,1.41
196.34,-0.155,1.37
196.34,-0.16,1.32
196.34,-0.15,1.265
196.34,-0.175,1.205
196.35,-0.17,1.145
196.35,-0.175,1.105
196.35,-0.17,1.065
196.36,-0.175,0.995
196.36,-0.19,0.93
196.36,-0.195,0.865
196.36,-0.2,0.81
196.37,-0.19,0.775
196.37,-0.165,0.735
196.37,-0.15,0.69
196.38,-0.155,0.635
196.38,-0.165,0.58
196.38,-0.185,0.53
196.38,-0.175,0.505
196.39,-0.18,0.48
196.39,-0.18,0.445
196.39,-0.21,0.405
196.39,-0.215,0.36
196.4,-0.23,0.34
196.4,-0.22,0.31
196.4,-0.205,0.295
196.41,-0.195,0.265
196.41,-0.205,0.23
196.41,-0.225,0.2
196.41,-0.245,0.18
196.42,-0.255,0.165
196.42,-0.245,0.165
196.42,-0.225,0.135
196.42,-0.235,0.11
196.43,-0.24,0.105
196.43,-0.27,0.085
196.43,-0.27,0.085
196.44,-0.275,0.095
196.44,-0.275,0.075
196.44,-0.265,0.06
196.44,-0.265,0.045
196.45,-0.25,0.045
196.45,-0.25,0.055
196.45,-0.255,0.065
196.46,-0.255,0.045
196.46,-0.255,0.035
196.46,-0.265,0.03
196.46,-0.275,0.025
196.47,-0.28,0.04
196.47,-0.28,0.05
196.47,-0.28,0.04
196.47,-0.28,0.035
196.48,-0.27,0.02
196.48,-0.27,0.035
196.48,-0.25,0.035
196.49,-0.25,0.05
196.49,-0.23,0.04
196.49,-0.235,0.03
196.49,-0.23,0.035
196.5,-0.25,0.04
196.5,-0.26,0.035
