330.22,-0.44,1.145
330.23,-0.435,1.185
330.23,-0.43,1.22
330.23,-0.435,1.245
330.24,-0.44,1.28
330.24,-0.44,1.335
330.24,-0.43,1.37
330.24,-0.435,1.405
330.25,-0.435,1.44
330.25,-0.455,1.465
330.25,-0.47,1.515
330.26,-0.46,1.555
330.26,-0.455,1.61
330.26,-0.44,1.65
330.26,-0.45,1.695
330.27,-0.455,1.705
330.27,-0.45,1.75
330.27,-0.445,1.8
330.27,-0.435,1.84
330.28,-0.435,1.865
330.28,-0.435,1.885
330.28,-0.435,1.915
330.29,-0.435,1.93
330.29,-0.42,1.97
330.29,-0.415,2.005
330.29,-0.405,2.015
330.3,-0.41,2.02
330.3,-0.4,2.025
330.3,-0.39,2.04
330.31,-0.38,2.045
330.31,-0.37,2.045
330.31,-0.35,2.03
330.31,-0.35,2.01
330.32,-0.345,1.995
330.32,-0.34,1.97
330.32,-0.325,1.95
330.32,-0.31,1.92
330.33,-0.305,1.88
330.33,-0.295,1.825
330.33,-0.3,1.76
330.34,-0.29,1.725
330.34,-0.275,1.675
330.34,-0.26,1.625
330.34,-0.245,1.55
330.35,-0.245,1.48
330.35,-0.245,1.41
330.35,-0.245,1.355
330.36,-0.225,1.29
330.36,-0.22,1.24
330.36,-0.22,1.17
330.36,-0.215,1.09
330.37,-0.235,1.015
330.37,-0.23,0.96
330.37,-0.22,0.9
330.38,-0.215,0.85
330.38,-0.21,0.775
330.38,-0.215,0.72
330.38,-0.215,0.64
330.39,-0.23,0.58
330.39,-0.23,0.535
330.39,-0.215,0.505
330.39,-0.23,0.455
330.4,-0.23,0.39
330.4,-0.245,0.355
330.4,-0.255,0.315
330.41,-0.25,0.29
330.41,-0.25,0.26
330.41,-0.245,0.215
330.41,-0.26,0.18
330.42,-0.275,0.145
330.42,-0.285,0.13
330.42,-0.28,0.12
330.42,-0.28,0.105
330.43,-0.275,0.08
330.43,-0.28,0.05
330.43,-0.28,0.02
330.44,-0.315,0.015
330.44,-0.3,0.01
330.44,-0.285,0.005
330.44,-0.275,0.005
330.45,-0.29,-0.015
330.45,-0.295,-0.03
330.45,-0.305,-0.04
330.46,-0.295,-0.04
330.46,-0.285,-0.035
330.46,-0.285,-0.04
330.46,-0.295,-0.06
330.47,-0.3,-0.065
330.47,-0.31,-0.07
330.47,-0.295,-0.06
330.47,-0.285,-0.055
330.48,-0.295,-0.055
330.48,-0.295,-0.07
330.48,-0.305,-0.08
330.49,-0.31,-0.075
330.49,-0.3,-0.06
330.49,-0.29,-0.055
330.49,-0.285,-0.055
330.5,-0.3,-0.065
330.5,-0.305,-0.06
330.5,-0.295,-0.065
330.51,-0.29,-0.04
330.51,-0.285,-0.035
330.51,-0.285,-0.04
330.51,-0.29,-0.045
330.52,-0.3,-0.06
330.52,-0.305,-0.04
330.52,-0.3,-0.045
330.52,-0.285,-0.035
330.53,-0.29,-0.03
330.53,-0.295,-0.045
330.53,-0.31,-0.05
330.54,-0.31,-0.045
330.54,-0.295,-0.045
330.54,-0.31,-0.05
330.54,-0.3,-0.045
330.55,-0.31,-0.065
330.55,-0.31,-0.065
330.55,-0.31,-0.07
330.56,-0.3,-0.05
330.56,-0.305,-0.045
330.56,-0.31,-0.055
330.56,-0.31,-0.075
330.57,-0.315,-0.08
330.57,-0.32,-0.08
330.57,-0.32,-0.075
330.57,-0.31,-0.075
330.58,-0.31,-0.07
330.58,-0.31,-0.095
330.58,-0.32,-0.11
330.59,-0.33,-0.105
330.59,-0.33,-0.1
330.59,-0.315,-0.095
330.59,-0.33,-0.1
330.6,-0.325,-0.12
330.6,-0.335,-0.135
330.6,-0.34,-0.135
330.61,-0.345,-0.135
330.61,-0.335,-0.125
330.61,-0.335,-0.135
330.61,-0.335,-0.15
330.62,-0.36,-0.165
330.62,-0.365,-0.17
330.62,-0.355,-0.16
330.62,-0.35,-0.15
330.63,-0.35,-0.155
330.63,-0.345,-0.175
330.63,-0.355,-0.175
330.64,-0.36,-0.18
330.64,-0.36,-0.175
330.64,-0.35,-0.18
330.64,-0.355,-0.17
330.65,-0.365,-0.185
330.65,-0.375,-0.2
330.65,-0.375,-0.185
330.66,-0.365,-0.19
330.66,-0.36,-0.185
330.66,-0.35,-0.19
330.66,-0.36,-0.205
330.67,-0.38,-0.21
330.67,-0.375,-0.21
330.67,-0.365,-0.195
330.67,-0.355,-0.195
330.68,-0.355,-0.18
330.68,-0.355,-0.195
330.68,-0.37,-0.2
330.69,-0.375,-0.195
330.69,-0.37,-0.17
330.69,-0.355,-0.16
330.69,-0.37,-0.16
330.7,-0.375,-0.17
330.7,-0.385,-0.18
330.7,-0.39,-0.165
330.71,-0.385,-0.16
330.71,-0.37,-0.15
330.71,-0.375,-0.155
330.71,-0.38,-0.16
330.72,-0.38,-0.17
330.72,-0.38,-0.165
330.72,-0.36,-0.165
330.72,-0.345,-0.175
330.73,-0.34,-0.18
330.73,-0.335,-0.2
330.73,-0.33,-0.2
330.74,-0.34,-0.215
330.74,-0.335,-0.215
330.74,-0.32,-0.22
330.74,-0.3,-0.23
330.75,-0.31,-0.255
330.75,-0.32,-0.28
330.75,-0.34,-0.275
330.76,-0.33,-0.28
330.76,-0.32,-0.285
330.76,-0.31,-0.29
330.76,-0.315,-0.29
330.77,-0.32,-0.3
330.77,-0.325,-0.295
330.77,-0.315,-0.25
330.77,-0.305,-0.25
330.78,-0.315,-0.23
330.78,-0.32,-0.25
330.78,-0.345,-0.25
330.79,-0.35,-0.25
330.79,-0.345,-0.21
330.79,-0.32,-0.185
330.79,-0.315,-0.115
330.8,-0.31,0.095
330.8,-0.295,0.47
330.8,-0.275,0.8
330.81,-0.23,0.76
330.81,-0.145,0.465
330.81,0.07,0.265
330.81,0.44,0.195
330.82,0.73,0.155
330.82,0.625,0.13
330.82,0.335,0.11
330.82,0.125,0.075
330.83,0.07,0.025
330.83,0.085,-0.075
330.83,0.12,-0.205
330.84,0.125,-0.365
330.84,0.14,-0.56
330.84,0.16,-0.78
330.84,0.19,-1.015
330.85,0.195,-1.25
330.85,0.215,-1.475
330.85,0.22,-1.72
330.86,0.23,-1.91
330.86,0.25,-2.05
330.86,0.25,-2.15
330.86,0.275,-2.265
330.87,0.295,-2.355
330.87,0.325,-2.435
330.87,0.335,-2.525
330.88,0.35,-2.65
330.88,0.34,-2.77
330.88,0.335,-2.89
330.88,0.295,-2.98
330.89,0.25,-3.02
330.89,0.21,-3.05
330.89,0.165,-3.08
330.89,0.12,-3.115
330.9,0.06,-3.16
330.9,-0.04,-3.21
330.9,-0.155,-3.215
330.91,-0.22,-3.215
330.91,-0.255,-3.22
330.91,-0.265,-3.23
330.91,-0.255,-3.245
330.92,-0.25,-3.25
330.92,-0.26,-3.22
330.92,-0.28,-3.19
330.92,-0.305,-3.12
330.93,-0.335,-3.05
330.93,-0.395,-2.975
330.93,-0.445,-2.865
330.94,-0.485,-2.73
330.94,-0.475,-2.59
330.94,-0.475,-2.425
330.94,-0.47,-2.245
330.95,-0.475,-2.025
330.95,-0.495,-1.785
330.95,-0.51,-1.54
330.96,-0.505,-1.295
330.96,-0.49,-1.065
330.96,-0.495,-0.835
330.96,-0.51,-0.625
330.97,-0.5,-0.44
330.97,-0.515,-0.24
330.97,-0.525,-0.07
330.97,-0.525,0.075
330.98,-0.545,0.23
330.98,-0.545,0.35
330.98,-0.545,0.46
330.99,-0.535,0.575
330.99,-0.515,0.66
330.99,-0.51,0.735
330.99,-0.5,0.785
331,-0.5,0.825
331,-0.505,0.845
331,-0.5,0.905
331.01,-0.49,0.955
331.01,-0.48,0.995
331.01,-0.475,1.04
331.01,-0.465,1.06
331.02,-0.46,1.095
331.02,-0.47,1.125
331.02,-0.455,1.185
331.02,-0.445,1.225
331.03,-0.445,1.275
331.03,-0.45,1.31
331.03,-0.465,1.335
331.04,-0.455,1.385
331.04,-0.44,1.43
331.04,-0.43,1.475
331.04,-0.415,1.515
331.05,-0.42,1.545
331.05,-0.425,1.575
331.05,-0.44,1.625
331.06,-0.44,1.66
331.06,-0.415,1.695
331.06,-0.415,1.74
331.06,-0.43,1.77
331.07,-0.44,1.795
331.07,-0.44,1.825
331.07,-0.425,1.875
331.07,-0.405,1.91
331.08,-0.395,1.94
331.08,-0.39,1.955
331.08,-0.395,1.97
331.09,-0.395,2.01
331.09,-0.39,2.035
331.09,-0.375,2.065
331.09,-0.38,2.07
331.1,-0.375,2.085
331.1,-0.38,2.08
331.1,-0.375,2.09
331.11,-0.36,2.09
331.11,-0.35,2.09
331.11,-0.34,2.09
331.11,-0.33,2.05
331.12,-0.34,2.035
331.12,-0.34,2.02
331.12,-0.315,2
331.12,-0.315,1.975
331.13,-0.3,1.93
331.13,-0.295,1.88
331.13,-0.305,1.82
331.14,-0.285,1.775
331.14,-0.27,1.72
331.14,-0.26,1.67
331.14,-0.26,1.605
331.15,-0.26,1.52
331.15,-0.265,1.45
331.15,-0.265,1.385
331.16,-0.25,1.325
331.16,-0.23,1.265
331.16,-0.22,1.185
331.16,-0.225,1.125
331.17,-0.235,1.04
331.17,-0.235,0.97
331.17,-0.235,0.92
331.17,-0.235,0.86
331.18,-0.23,0.795
331.18,-0.24,0.73
331.18,-0.255,0.665
331.19,-0.27,0.615
331.19,-0.275,0.575
331.19,-0.275,0.53
331.19,-0.275,0.48
331.2,-0.28,0.42
331.2,-0.275,0.375
331.2,-0.28,0.335
331.21,-0.27,0.31
331.21,-0.27,0.28
331.21,-0.27,0.24
331.21,-0.27,0.195
331.22,-0.285,0.16
331.22,-0.305,0.145
331.22,-0.295,0.12
331.22,-0.295,0.1
331.23,-0.3,0.07
331.23,-0.305,0.06
331.23,-0.3,0.015
331.24,-0.305,0.02
331.24,-0.315,0.015
331.24,-0.305,0.01
331.24,-0.3,-0.005
331.25,-0.32,-0.03
331.25,-0.32,-0.055
331.25,-0.325,-0.06
331.26,-0.305,-0.05
331.26,-0.3,-0.045
331.26,-0.29,-0.055
331.26,-0.305,-0.09
331.27,-0.315,-0.095
331.27,-0.345,-0.11
331.27,-0.35,-0.08
331.27,-0.34,-0.09
331.28,-0.34,-0.11
331.28,-0.345,-0.11
331.28,-0.35,-0.115
331.29,-0.36,-0.11
331.29,-0.33,-0.095
331.29,-0.32,-0.1
331.29,-0.32,-0.1
331.3,-0.315,-0.11
331.3,-0.31,-0.11
331.3,-0.3,-0.1
331.31,-0.305,-0.1
331.31,-0.295,-0.095
331.31,-0.3,-0.095
331.31,-0.325,-0.105
331.32,-0.33,-0.1
331.32,-0.33,-0.095
331.32,-0.32,-0.085
331.32,-0.3,-0.07
331.33,-0.3,-0.075
331.33,-0.31,-0.09
331.33,-0.325,-0.09
331.34,-0.33,-0.085
331.34,-0.325,-0.065
331.34,-0.32,-0.065
331.34,-0.315,-0.055
331.35,-0.32,-0.085
331.35,-0.335,-0.09
331.35,-0.315,-0.08
331.36,-0.305,-0.07
331.36,-0.31,-0.065
331.36,-0.31,-0.075
331.36,-0.325,-0.08
331.37,-0.325,-0.085
331.37,-0.325,-0.08
331.37,-0.31,-0.08
331.38,-0.31,-0.08
331.38,-0.31,-0.075
331.38,-0.315,-0.1
331.38,-0.315,-0.1
331.39,-0.32,-0.115
331.39,-0.33,-0.08
331.39,-0.32,-0.09
331.39,-0.325,-0.1
331.4,-0.32,-0.105
331.4,-0.335,-0.135
331.4,-0.335,-0.12
331.41,-0.335,-0.12
331.41,-0.33,-0.11
331.41,-0.325,-0.12
331.41,-0.34,-0.145
331.42,-0.35,-0.15
331.42,-0.355,-0.155
331.42,-0.345,-0.155
331.42,-0.32,-0.145
331.43,-0.315,-0.16
331.43,-0.32,-0.165
331.43,-0.345,-0.17
331.44,-0.35,-0.18
331.44,-0.35,-0.165
331.44,-0.35,-0.165
331.44,-0.35,-0.18
331.45,-0.355,-0.185
331.45,-0.365,-0.21
331.45,-0.37,-0.195
331.46,-0.375,-0.18
331.46,-0.36,-0.18
331.46,-0.375,-0.19
331.46,-0.37,-0.2
331.47,-0.365,-0.225
331.47,-0.36,-0.21
331.47,-0.35,-0.205
331.47,-0.35,-0.2
331.48,-0.35,-0.2
331.48,-0.37,-0.215
331.48,-0.365,-0.23
331.49,-0.36,-0.215
331.49,-0.34,-0.21
331.49,-0.33,-0.22
331.49,-0.355,-0.215
331.5,-0.36,-0.22
331.5,-0.375,-0.24
331.5,-0.385,-0.22
331.51,-0.37,-0.215
331.51,-0.37,-0.21
331.51,-0.37,-0.21
331.51,-0.385,-0.24
331.52,-0.4,-0.235
331.52,-0.4,-0.235
331.52,-0.4,-0.23
331.52,-0.38,-0.215
331.53,-0.395,-0.215
331.53,-0.39,-0.215
331.53,-0.38,-0.215
331.54,-0.37,-0.195
331.54,-0.345,-0.185
331.54,-0.335,-0.18
331.54,-0.345,-0.175
331.55,-0.34,-0.185
331.55,-0.34,-0.205
331.55,-0.35,-0.2
331.56,-0.36,-0.205
331.56,-0.355,-0.205
331.56,-0.35,-0.225
331.56,-0.345,-0.24
331.57,-0.325,-0.24
331.57,-0.31,-0.245
331.57,-0.29,-0.24
331.57,-0.285,-0.25
331.58,-0.29,-0.26
331.58,-0.31,-0.28
331.58,-0.315,-0.305
331.59,-0.35,-0.295
331.59,-0.35,-0.295
331.59,-0.34,-0.3
331.59,-0.32,-0.3
331.6,-0.315,-0.305
331.6,-0.31,-0.31
331.6,-0.315,-0.31
331.61,-0.3,-0.29
331.61,-0.295,-0.265
331.61,-0.305,-0.255
331.61,-0.31,-0.255
331.62,-0.32,-0.255
331.62,-0.33,-0.24
331.62,-0.33,-0.21
331.62,-0.32,-0.135
331.63,-0.29,0.06
331.63,-0.28,0.43
331.63,-0.245,0.68
331.64,-0.205,0.635
331.64,-0.115,0.41
331.64,0.085,0.235
331.64,0.43,0.195
331.65,0.645,0.165
331.65,0.56,0.125
331.65,0.285,0.085
331.66,0.105,0.065
331.66,0.07,0.025
331.66,0.1,-0.03
331.66,0.135,-0.135
331.67,0.15,-0.275
331.67,0.15,-0.43
331.67,0.18,-0.645
331.67,0.205,-0.845
331.68,0.225,-1.055
331.68,0.23,-1.28
331.68,0.225,-1.515
331.69,0.205,-1.765
331.69,0.215,-1.94
331.69,0.23,-2.07
331.69,0.27,-2.17
331.7,0.3,-2.285
331.7,0.32,-2.395
331.7,0.31,-2.485
331.71,0.31,-2.605
331.71,0.31,-2.705
331.71,0.315,-2.815
331.71,0.295,-2.925
331.72,0.245,-2.995
331.72,0.205,-3.045
331.72,0.155,-3.055
331.72,0.13,-3.09
331.73,0.075,-3.135
331.73,-0.01,-3.18
331.73,-0.135,-3.2
331.74,-0.245,-3.21
331.74,-0.32,-3.21
331.74,-0.375,-3.22
331.74,-0.38,-3.235
331.75,-0.38,-3.235
331.75,-0.385,-3.24
331.75,-0.375,-3.225
331.76,-0.395,-3.185
331.76,-0.395,-3.115
331.76,-0.435,-3.04
331.76,-0.485,-2.98
331.77,-0.54,-2.87
331.77,-0.57,-2.745
331.77,-0.565,-2.595
331.77,-0.54,-2.465
331.78,-0.51,-2.29
331.78,-0.5,-2.095
331.78,-0.495,-1.88
331.79,-0.475,-1.63
331.79,-0.47,-1.42
331.79,-0.45,-1.21
331.79,-0.45,-0.99
331.8,-0.445,-0.79
331.8,-0.45,-0.595
331.8,-0.465,-0.39
331.81,-0.47,-0.195
331.81,-0.485,-0.025
331.81,-0.485,0.135
331.81,-0.495,0.255
331.82,-0.495,0.37
331.82,-0.455,0.485
331.82,-0.405,0.6
331.82,-0.38,0.67
331.83,-0.375,0.72
331.83,-0.39,0.76
331.83,-0.4,0.8
331.84,-0.425,0.845
331.84,-0.415,0.89
331.84,-0.405,0.94
331.84,-0.39,0.97
331.85,-0.38,1
331.85,-0.385,1.025
331.85,-0.37,1.075
331.86,-0.36,1.115
331.86,-0.355,1.165
331.86,-0.365,1.195
331.86,-0.36,1.22
331.87,-0.34,1.25
331.87,-0.345,1.295
331.87,-0.33,1.335
331.88,-0.32,1.39
331.88,-0.315,1.405
331.88,-0.335,1.445
331.88,-0.34,1.465
331.89,-0.35,1.51
331.89,-0.345,1.56
331.89,-0.34,1.59
331.89,-0.325,1.645
331.9,-0.33,1.67
331.9,-0.32,1.705
331.9,-0.345,1.75
331.91,-0.345,1.805
331.91,-0.34,1.83
331.91,-0.325,1.855
331.91,-0.295,1.89
331.92,-0.28,1.905
331.92,-0.275,1.93
331.92,-0.29,1.965
331.92,-0.305,1.98
331.93,-0.285,1.995
331.93,-0.255,2
331.93,-0.21,1.99
331.94,-0.2,2.01
331.94,-0.195,2.005
331.94,-0.2,2.005
331.94,-0.205,1.99
331.95,-0.205,1.96
331.95,-0.21,1.935
331.95,-0.22,1.91
331.96,-0.205,1.88
331.96,-0.19,1.85
331.96,-0.175,1.785
331.96,-0.17,1.73
331.97,-0.17,1.665
331.97,-0.17,1.615
331.97,-0.16,1.56
331.97,-0.16,1.51
331.98,-0.16,1.43
331.98,-0.145,1.375
331.98,-0.14,1.285
331.99,-0.135,1.215
331.99,-0.135,1.165
331.99,-0.125,1.105
331.99,-0.125,1.035
332,-0.145,0.96
332,-0.155,0.895
332,-0.175,0.835
332.01,-0.165,0.78
332.01,-0.165,0.73
332.01,-0.175,0.675
332.01,-0.17,0.6
332.02,-0.195,0.54
332.02,-0.19,0.5
332.02,-0.19,0.455
332.02,-0.185,0.415
332.03,-0.195,0.365
332.03,-0.205,0.31
332.03,-0.225,0.265
332.04,-0.245,0.245
332.04,-0.23,0.22
332.04,-0.22,0.2
332.04,-0.24,0.17
332.05,-0.24,0.125
332.05,-0.265,0.1
332.05,-0.27,0.08
332.06,-0.265,0.08
332.06,-0.26,0.065
332.06,-0.26,0.05
332.06,-0.27,0.03
332.07,-0.29,0
332.07,-0.29,0
332.07,-0.275,0.01
332.07,-0.275,-0.01
332.08,-0.275,-0.015
332.08,-0.28,-0.035
332.08,-0.295,-0.055
332.09,-0.3,-0.045
332.09,-0.295,-0.045
332.09,-0.29,-0.055
332.09,-0.295,-0.055
332.1,-0.295,-0.065
332.1,-0.305,-0.09
332.1,-0.31,-0.07
332.11,-0.31,-0.07
332.11,-0.315,-0.07
332.11,-0.305,-0.07
332.11,-0.315,-0.085
332.12,-0.325,-0.09
332.12,-0.32,-0.09
332.12,-0.305,-0.075
332.12,-0.305,-0.065
332.13,-0.31,-0.07
332.13,-0.31,-0.075
332.13,-0.315,-0.08
332.14,-0.32,-0.08
332.14,-0.32,-0.07
332.14,-0.3,-0.065
332.14,-0.305,-0.06
332.15,-0.31,-0.07
332.15,-0.32,-0.075
332.15,-0.325,-0.06
332.16,-0.31,-0.045
332.16,-0.315,-0.05
332.16,-0.32,-0.05
332.16,-0.31,-0.05
332.17,-0.33,-0.06
332.17,-0.33,-0.05
332.17,-0.335,-0.045
332.17,-0.325,-0.04
332.18,-0.325,-0.04
332.18,-0.33,-0.065
332.18,-0.345,-0.065
332.19,-0.35,-0.05
332.19,-0.35,-0.04
332.19,-0.335,-0.055
332.19,-0.345,-0.055
332.2,-0.35,-0.055
332.2,-0.35,-0.065
332.2,-0.37,-0.06
332.21,-0.36,-0.05
332.21,-0.35,-0.05
332.21,-0.355,-0.065
332.21,-0.36,-0.075
332.22,-0.375,-0.08
332.22,-0.37,-0.09
332.22,-0.36,-0.075
332.22,-0.36,-0.075
332.23,-0.37,-0.075
332.23,-0.365,-0.09
332.23,-0.38,-0.105
332.24,-0.375,-0.105
332.24,-0.38,-0.095
332.24,-0.375,-0.09
332.24,-0.38,-0.11
332.25,-0.4,-0.125
332.25,-0.395,-0.125
332.25,-0.395,-0.115
332.26,-0.4,-0.12
332.26,-0.395,-0.115
332.26,-0.39,-0.115
332.26,-0.4,-0.13
332.27,-0.405,-0.145
332.27,-0.41,-0.14
332.27,-0.405,-0.135
332.27,-0.4,-0.125
332.28,-0.4,-0.13
332.28,-0.405,-0.15
332.28,-0.42,-0.155
332.29,-0.41,-0.15
332.29,-0.405,-0.145
332.29,-0.415,-0.145
332.29,-0.415,-0.15
332.3,-0.42,-0.155
332.3,-0.435,-0.17
332.3,-0.425,-0.16
332.31,-0.43,-0.16
332.31,-0.41,-0.14
332.31,-0.415,-0.16
332.31,-0.415,-0.175
332.32,-0.425,-0.175
332.32,-0.435,-0.17
332.32,-0.43,-0.165
332.32,-0.42,-0.15
332.33,-0.425,-0.16
332.33,-0.43,-0.165
332.33,-0.435,-0.18
332.34,-0.44,-0.17
332.34,-0.44,-0.16
332.34,-0.42,-0.17
332.34,-0.43,-0.165
332.35,-0.435,-0.165
332.35,-0.435,-0.175
332.35,-0.46,-0.155
332.36,-0.44,-0.145
332.36,-0.415,-0.135
332.36,-0.425,-0.13
332.36,-0.435,-0.13
332.37,-0.44,-0.14
332.37,-0.44,-0.13
332.37,-0.435,-0.125
332.38,-0.425,-0.11
332.38,-0.43,-0.13
332.38,-0.445,-0.15
332.38,-0.44,-0.17
332.39,-0.42,-0.175
332.39,-0.405,-0.175
332.39,-0.395,-0.17
332.39,-0.385,-0.17
332.4,-0.395,-0.195
332.4,-0.395,-0.195
332.4,-0.395,-0.21
332.41,-0.38,-0.205
332.41,-0.37,-0.21
332.41,-0.37,-0.21
332.41,-0.39,-0.23
332.42,-0.405,-0.245
332.42,-0.405,-0.245
332.42,-0.4,-0.25
332.42,-0.39,-0.245
332.43,-0.385,-0.25
332.43,-0.39,-0.25
332.43,-0.39,-0.26
332.44,-0.4,-0.235
332.44,-0.39,-0.2
332.44,-0.365,-0.185
332.44,-0.375,-0.18
332.45,-0.39,-0.155
332.45,-0.39,-0.1
332.45,-0.395,0.08
332.46,-0.38,0.43
332.46,-0.345,0.755
332.46,-0.3,0.785
332.46,-0.24,0.57
332.47,-0.085,0.36
332.47,0.22,0.275
332.47,0.555,0.26
332.47,0.655,0.235
332.48,0.455,0.19
332.48,0.17,0.155
332.48,0.03,0.12
332.49,0,0.08
332.49,0.02,0.025
332.49,0.04,-0.07
332.49,0.06,-0.195
332.5,0.065,-0.375
332.5,0.08,-0.58
332.5,0.085,-0.795
332.51,0.125,-0.99
332.51,0.15,-1.22
332.51,0.16,-1.47
332.51,0.16,-1.71
332.52,0.16,-1.9
332.52,0.16,-2.02
332.52,0.175,-2.1
332.52,0.215,-2.19
332.53,0.235,-2.275
332.53,0.26,-2.395
332.53,0.245,-2.525
332.54,0.245,-2.64
332.54,0.255,-2.735
332.54,0.255,-2.82
332.54,0.225,-2.875
332.55,0.17,-2.93
332.55,0.115,-2.98
332.55,0.05,-3.005
332.56,0.025,-3.045
332.56,-0.035,-3.06
332.56,-0.12,-3.09
332.56,-0.215,-3.13
332.57,-0.32,-3.145
332.57,-0.37,-3.165
332.57,-0.38,-3.16
332.57,-0.355,-3.165
332.58,-0.35,-3.155
332.58,-0.37,-3.145
332.58,-0.385,-3.11
332.59,-0.425,-3.045
332.59,-0.445,-2.965
332.59,-0.465,-2.86
332.59,-0.495,-2.74
332.6,-0.53,-2.63
332.6,-0.545,-2.505
332.6,-0.555,-2.34
332.61,-0.535,-2.14
332.61,-0.525,-1.94
332.61,-0.535,-1.705
332.61,-0.52,-1.495
332.62,-0.545,-1.285
332.62,-0.55,-1.06
332.62,-0.545,-0.835
332.62,-0.54,-0.62
332.63,-0.555,-0.405
332.63,-0.57,-0.24
332.63,-0.58,-0.055
332.64,-0.6,0.095
332.64,-0.605,0.245
332.64,-0.615,0.385
332.64,-0.59,0.505
332.65,-0.595,0.6
332.65,-0.59,0.65
332.65,-0.59,0.725
332.66,-0.575,0.79
332.66,-0.575,0.825
332.66,-0.565,0.865
332.66,-0.56,0.9
332.67,-0.57,0.92
332.67,-0.56,0.975
332.67,-0.55,1.01
332.67,-0.55,1.05
332.68,-0.55,1.085
332.68,-0.55,1.125
332.68,-0.545,1.155
332.69,-0.55,1.19
332.69,-0.545,1.235
332.69,-0.53,1.265
332.69,-0.53,1.315
332.7,-0.53,1.33
332.7,-0.525,1.365
332.7,-0.535,1.41
332.71,-0.535,1.45
332.71,-0.52,1.505
332.71,-0.515,1.535
332.71,-0.515,1.565
332.72,-0.53,1.595
332.72,-0.535,1.65
332.72,-0.51,1.705
332.72,-0.5,1.74
332.73,-0.5,1.78
332.73,-0.505,1.815
332.73,-0.51,1.83
332.74,-0.51,1.87
332.74,-0.49,1.905
332.74,-0.5,1.945
332.74,-0.485,1.965
332.75,-0.48,1.98
332.75,-0.485,1.99
332.75,-0.485,2.015
332.76,-0.465,2.045
332.76,-0.45,2.06
332.76,-0.45,2.07
332.76,-0.445,2.06
332.77,-0.44,2.05
332.77,-0.44,2.045
332.77,-0.415,2.04
332.77,-0.41,2.03
332.78,-0.4,2
332.78,-0.395,1.97
332.78,-0.395,1.93
332.79,-0.4,1.89
332.79,-0.39,1.845
332.79,-0.36,1.81
332.79,-0.35,1.76
332.8,-0.355,1.695
332.8,-0.35,1.615
332.8,-0.345,1.57
332.81,-0.34,1.51
332.81,-0.325,1.46
332.81,-0.32,1.375
332.81,-0.34,1.31
332.82,-0.325,1.23
332.82,-0.325,1.175
332.82,-0.315,1.105
332.82,-0.3,1.05
332.83,-0.31,0.97
332.83,-0.31,0.905
332.83,-0.325,0.84
332.84,-0.32,0.795
332.84,-0.335,0.73
332.84,-0.33,0.675
332.84,-0.325,0.63
332.85,-0.34,0.56
332.85,-0.345,0.5
332.85,-0.35,0.455
332.86,-0.34,0.415
332.86,-0.335,0.375
332.86,-0.34,0.33
332.86,-0.36,0.29
332.87,-0.355,0.245
332.87,-0.37,0.23
332.87,-0.36,0.21
332.88,-0.365,0.19
332.88,-0.375,0.17
332.88,-0.375,0.135
332.88,-0.39,0.095
332.89,-0.4,0.095
332.89,-0.4,0.08
332.89,-0.385,0.08
332.89,-0.385,0.05
332.9,-0.39,0.035
332.9,-0.4,0.015
332.9,-0.41,0.02
332.91,-0.4,0.025
332.91,-0.395,0.015
332.91,-0.4,0
332.91,-0.415,-0.01
332.92,-0.415,-0.02
332.92,-0.42,-0.03
332.92,-0.405,-0.02
332.92,-0.405,-0.015
332.93,-0.395,-0.025
332.93,-0.41,-0.045
332.93,-0.42,-0.055
332.94,-0.41,-0.045
332.94,-0.405,-0.035
332.94,-0.395,-0.03
332.94,-0.4,-0.04
332.95,-0.405,-0.045
332.95,-0.405,-0.055
332.95,-0.405,-0.04
332.96,-0.41,-0.025
332.96,-0.405,-0.02
332.96,-0.405,-0.025
332.96,-0.41,-0.035
332.97,-0.415,-0.04
332.97,-0.415,-0.025
332.97,-0.405,-0.02
332.97,-0.39,-0.005
332.98,-0.395,-0.01
332.98,-0.4,-0.02
332.98,-0.405,-0.03
332.99,-0.41,-0.01
332.99,-0.415,-0.015
332.99,-0.395,-0.005
332.99,-0.385,0
333,-0.39,-0.01
333,-0.405,-0.035
333,-0.42,-0.015
333.01,-0.415,0
333.01,-0.405,-0.005
333.01,-0.4,-0.01
333.01,-0.41,-0.015
333.02,-0.415,-0.025
333.02,-0.42,-0.015
333.02,-0.42,-0.01
333.02,-0.41,-0.01
333.03,-0.415,-0.02
333.03,-0.42,-0.03
333.03,-0.415,-0.04
333.04,-0.425,-0.035
333.04,-0.415,-0.03
333.04,-0.415,-0.035
333.04,-0.42,-0.035
333.05,-0.415,-0.05
333.05,-0.425,-0.065
333.05,-0.445,-0.065
333.06,-0.435,-0.065
333.06,-0.425,-0.065
333.06,-0.43,-0.06
333.06,-0.42,-0.07
333.07,-0.435,-0.08
333.07,-0.455,-0.085
333.07,-0.435,-0.075
333.07,-0.43,-0.085
333.08,-0.43,-0.085
333.08,-0.435,-0.1
333.08,-0.45,-0.105
333.09,-0.455,-0.105
333.09,-0.445,-0.105
333.09,-0.43,-0.1
333.09,-0.44,-0.105
333.1,-0.445,-0.12
333.1,-0.435,-0.125
333.1,-0.44,-0.13
333.11,-0.435,-0.115
333.11,-0.44,-0.115
333.11,-0.44,-0.125
333.11,-0.445,-0.135
333.12,-0.445,-0.15
333.12,-0.455,-0.14
333.12,-0.44,-0.135
333.12,-0.435,-0.125
333.13,-0.445,-0.145
333.13,-0.445,-0.165
333.13,-0.45,-0.155
333.14,-0.46,-0.16
333.14,-0.44,-0.15
333.14,-0.44,-0.15
333.14,-0.455,-0.155
333.15,-0.45,-0.16
333.15,-0.46,-0.17
333.15,-0.46,-0.16
333.16,-0.45,-0.155
333.16,-0.435,-0.17
333.16,-0.445,-0.165
333.16,-0.45,-0.17
333.17,-0.455,-0.175
333.17,-0.465,-0.18
333.17,-0.45,-0.155
333.17,-0.445,-0.155
333.18,-0.44,-0.165
333.18,-0.455,-0.18
333.18,-0.465,-0.185
333.19,-0.455,-0.19
333.19,-0.45,-0.185
333.19,-0.44,-0.16
333.19,-0.44,-0.175
333.2,-0.445,-0.185
333.2,-0.45,-0.2
333.2,-0.445,-0.185
333.21,-0.45,-0.18
333.21,-0.44,-0.175
333.21,-0.435,-0.19
333.21,-0.445,-0.2
333.22,-0.445,-0.205
333.22,-0.44,-0.185
333.22,-0.445,-0.175
333.22,-0.43,-0.185
333.23,-0.425,-0.185
333.23,-0.425,-0.19
333.23,-0.44,-0.19
333.24,-0.445,-0.185
333.24,-0.425,-0.19
333.24,-0.425,-0.185
333.24,-0.425,-0.18
333.25,-0.435,-0.19
333.25,-0.445,-0.21
333.25,-0.445,-0.2
333.26,-0.42,-0.18
333.26,-0.42,-0.185
333.26,-0.415,-0.185
333.26,-0.415,-0.195
333.27,-0.435,-0.195
333.27,-0.435,-0.18
333.27,-0.41,-0.18
333.27,-0.395,-0.165
333.28,-0.395,-0.155
333.28,-0.4,-0.145
333.28,-0.385,-0.1
333.29,-0.385,0.04
333.29,-0.365,0.335
333.29,-0.325,0.705
333.29,-0.295,0.865
333.3,-0.25,0.7
333.3,-0.15,0.425
333.3,0.13,0.3
333.31,0.54,0.25
333.31,0.74,0.24
333.31,0.59,0.19
333.31,0.265,0.15
333.32,0.06,0.12
333.32,-0.005,0.085
333.32,0.02,0.035
333.32,0.05,-0.075
333.33,0.05,-0.24
333.33,0.04,-0.43
333.33,0.05,-0.67
333.34,0.045,-0.92
333.34,0.065,-1.17
333.34,0.08,-1.43
333.34,0.075,-1.69
333.35,0.06,-1.935
333.35,0.055,-2.15
333.35,0.075,-2.33
333.36,0.1,-2.465
333.36,0.12,-2.575
333.36,0.13,-2.675
333.36,0.11,-2.795
333.37,0.095,-2.91
333.37,0.075,-2.995
333.37,0.06,-3.06
333.38,0.035,-3.105
333.38,-0.04,-3.135
333.38,-0.11,-3.165
333.38,-0.16,-3.185
333.39,-0.225,-3.2
333.39,-0.3,-3.195
333.39,-0.36,-3.21
333.39,-0.455,-3.2
333.4,-0.515,-3.21
333.4,-0.525,-3.215
333.4,-0.51,-3.195
333.41,-0.465,-3.195
333.41,-0.43,-3.185
333.41,-0.43,-3.16
333.41,-0.45,-3.135
333.42,-0.48,-3.08
333.42,-0.515,-3
333.42,-0.515,-2.88
333.42,-0.54,-2.76
333.43,-0.535,-2.62
333.43,-0.535,-2.47
333.43,-0.52,-2.29
333.44,-0.52,-2.04
333.44,-0.5,-1.8
333.44,-0.48,-1.545
333.44,-0.485,-1.31
333.45,-0.49,-1.08
333.45,-0.51,-0.855
333.45,-0.52,-0.615
333.46,-0.505,-0.4
333.46,-0.51,-0.225
333.46,-0.53,-0.055
333.46,-0.55,0.075
333.47,-0.58,0.235
333.47,-0.565,0.385
333.47,-0.555,0.515
333.47,-0.53,0.605
333.48,-0.545,0.655
333.48,-0.555,0.695
333.48,-0.575,0.73
333.49,-0.57,0.775
333.49,-0.57,0.82
333.49,-0.565,0.85
333.49,-0.57,0.895
333.5,-0.57,0.915
333.5,-0.565,0.935
333.5,-0.58,0.965
333.51,-0.565,1.01
333.51,-0.55,1.04
333.51,-0.555,1.075
333.51,-0.56,1.09
333.52,-0.57,1.115
333.52,-0.565,1.15
333.52,-0.55,1.195
333.52,-0.545,1.215
333.53,-0.535,1.245
333.53,-0.545,1.265
333.53,-0.55,1.3
333.54,-0.555,1.335
333.54,-0.55,1.38
333.54,-0.53,1.415
333.54,-0.535,1.44
333.55,-0.54,1.465
333.55,-0.55,1.495
333.55,-0.545,1.53
333.56,-0.54,1.58
333.56,-0.525,1.61
333.56,-0.51,1.63
333.56,-0.515,1.66
333.57,-0.525,1.68
333.57,-0.53,1.71
333.57,-0.505,1.745
333.57,-0.485,1.795
333.58,-0.495,1.815
333.58,-0.485,1.84
333.58,-0.48,1.855
333.59,-0.485,1.88
333.59,-0.465,1.91
333.59,-0.455,1.94
333.59,-0.45,1.935
333.6,-0.45,1.94
333.6,-0.445,1.945
333.6,-0.43,1.95
333.61,-0.415,1.96
333.61,-0.39,1.965
333.61,-0.395,1.955
333.61,-0.395,1.94
333.62,-0.395,1.92
333.62,-0.38,1.905
333.62,-0.36,1.895
333.62,-0.34,1.855
333.63,-0.335,1.825
333.63,-0.32,1.765
333.63,-0.32,1.72
333.64,-0.325,1.68
333.64,-0.305,1.645
333.64,-0.275,1.58
333.64,-0.265,1.52
333.65,-0.26,1.45
333.65,-0.26,1.375
333.65,-0.265,1.335
333.66,-0.265,1.275
333.66,-0.255,1.205
333.66,-0.255,1.13
333.66,-0.26,1.05
333.67,-0.26,0.98
333.67,-0.26,0.91
333.67,-0.235,0.85
333.67,-0.23,0.8
333.68,-0.24,0.74
333.68,-0.255,0.68
333.68,-0.255,0.62
333.69,-0.26,0.58
333.69,-0.265,0.545
333.69,-0.235,0.49
333.69,-0.25,0.45
333.7,-0.26,0.4
333.7,-0.27,0.36
333.7,-0.275,0.335
333.71,-0.275,0.31
333.71,-0.28,0.265
333.71,-0.275,0.24
333.71,-0.29,0.205
333.72,-0.3,0.165
333.72,-0.31,0.15
333.72,-0.295,0.135
333.72,-0.275,0.13
333.73,-0.275,0.105
333.73,-0.295,0.085
333.73,-0.3,0.06
333.74,-0.315,0.06
333.74,-0.32,0.07
333.74,-0.315,0.045
333.74,-0.325,0.04
333.75,-0.325,0.015
333.75,-0.34,0
333.75,-0.335,0
333.76,-0.315,0.015
333.76,-0.305,0.01
333.76,-0.32,0.005
333.76,-0.33,0
333.77,-0.36,-0.01
333.77,-0.345,0.005
333.77,-0.325,0
333.77,-0.32,0
333.78,-0.32,0
333.78,-0.335,-0.015
333.78,-0.335,-0.02
333.79,-0.35,-0.025
333.79,-0.33,-0.005
333.79,-0.33,0
333.79,-0.32,0.015
333.8,-0.33,-0.015
333.8,-0.34,-0.02
333.8,-0.345,0
333.81,-0.35,-0.005
333.81,-0.335,-0.005
333.81,-0.33,0
333.81,-0.335,-0.005
333.82,-0.345,-0.015
333.82,-0.345,-0.02
333.82,-0.335,-0.015
333.82,-0.335,-0.005
333.83,-0.34,-0.015
333.83,-0.345,-0.02
333.83,-0.35,-0.025
333.84,-0.36,-0.015
333.84,-0.35,-0.015
333.84,-0.335,-0.01
333.84,-0.34,-0.015
333.85,-0.35,-0.025
333.85,-0.36,-0.03
333.85,-0.365,-0.025
333.86,-0.355,-0.025
333.86,-0.34,-0.035
333.86,-0.335,-0.03
333.86,-0.34,-0.03
333.87,-0.345,-0.07
333.87,-0.36,-0.05
333.87,-0.36,-0.05
333.88,-0.38,-0.05
333.88,-0.375,-0.06
333.88,-0.37,-0.07
333.88,-0.365,-0.08
333.89,-0.37,-0.08
333.89,-0.365,-0.08
333.89,-0.35,-0.07
333.89,-0.37,-0.085
333.9,-0.365,-0.095
333.9,-0.37,-0.1
333.9,-0.38,-0.105
333.91,-0.375,-0.095
333.91,-0.385,-0.1
333.91,-0.395,-0.105
333.91,-0.395,-0.115
333.92,-0.39,-0.13
333.92,-0.395,-0.115
333.92,-0.375,-0.12
333.92,-0.345,-0.125
333.93,-0.36,-0.135
333.93,-0.37,-0.14
333.93,-0.385,-0.15
333.94,-0.375,-0.145
333.94,-0.375,-0.14
333.94,-0.37,-0.14
333.94,-0.365,-0.15
333.95,-0.38,-0.165
333.95,-0.385,-0.18
333.95,-0.39,-0.175
333.96,-0.36,-0.155
333.96,-0.37,-0.155
333.96,-0.38,-0.165
333.96,-0.41,-0.18
333.97,-0.405,-0.185
333.97,-0.405,-0.185
333.97,-0.4,-0.18
333.97,-0.38,-0.165
333.98,-0.39,-0.185
333.98,-0.38,-0.2
333.98,-0.4,-0.195
333.99,-0.4,-0.185
333.99,-0.385,-0.175
333.99,-0.375,-0.18
333.99,-0.38,-0.195
334,-0.375,-0.19
334,-0.39,-0.2
334,-0.38,-0.195
334.01,-0.365,-0.19
334.01,-0.35,-0.175
334.01,-0.37,-0.18
334.01,-0.375,-0.185
334.02,-0.375,-0.205
334.02,-0.375,-0.205
334.02,-0.375,-0.19
334.02,-0.38,-0.18
334.03,-0.39,-0.205
334.03,-0.41,-0.205
334.03,-0.415,-0.21
334.04,-0.415,-0.215
334.04,-0.385,-0.2
334.04,-0.365,-0.2
334.04,-0.375,-0.195
334.05,-0.375,-0.215
334.05,-0.38,-0.22
334.05,-0.39,-0.21
334.06,-0.395,-0.2
334.06,-0.385,-0.19
334.06,-0.405,-0.195
334.06,-0.385,-0.205
334.07,-0.385,-0.205
334.07,-0.39,-0.205
334.07,-0.385,-0.195
334.07,-0.37,-0.195
334.08,-0.365,-0.205
334.08,-0.355,-0.22
334.08,-0.35,-0.21
334.09,-0.365,-0.21
334.09,-0.36,-0.2
334.09,-0.345,-0.205
334.09,-0.365,-0.2
334.1,-0.385,-0.215
334.1,-0.395,-0.215
334.1,-0.395,-0.205
334.11,-0.385,-0.205
334.11,-0.365,-0.2
334.11,-0.365,-0.21
334.11,-0.365,-0.21
334.12,-0.375,-0.22
334.12,-0.39,-0.205
334.12,-0.395,-0.19
334.12,-0.375,-0.19
334.13,-0.355,-0.19
334.13,-0.345,-0.18
334.13,-0.33,-0.175
334.14,-0.335,-0.115
334.14,-0.305,0.035
334.14,-0.275,0.37
334.14,-0.255,0.75
334.15,-0.22,0.865
334.15,-0.16,0.635
334.15,0.005,0.385
334.16,0.385,0.275
334.16,0.75,0.23
334.16,0.815,0.195
334.16,0.54,0.14
334.17,0.23,0.09
334.17,0.06,0.055
334.17,0.075,-0.005
334.17,0.11,-0.1
334.18,0.125,-0.24
334.18,0.125,-0.405
334.18,0.1,-0.615
334.19,0.115,-0.845
334.19,0.15,-1.065
334.19,0.17,-1.305
334.19,0.17,-1.565
334.2,0.175,-1.835
334.2,0.155,-2.06
334.2,0.14,-2.23
334.21,0.125,-2.365
334.21,0.14,-2.505
334.21,0.14,-2.62
334.21,0.14,-2.71
334.22,0.115,-2.825
334.22,0.09,-2.92
334.22,0.09,-2.99
334.22,0.065,-3.065
334.23,0.015,-3.12
334.23,-0.055,-3.14
334.23,-0.13,-3.17
334.24,-0.18,-3.175
334.24,-0.23,-3.19
334.24,-0.285,-3.21
334.24,-0.385,-3.21
334.25,-0.505,-3.22
334.25,-0.57,-3.23
334.25,-0.605,-3.22
334.26,-0.6,-3.205
334.26,-0.575,-3.195
334.26,-0.56,-3.17
334.26,-0.565,-3.15
334.27,-0.57,-3.095
334.27,-0.59,-3.01
334.27,-0.605,-2.89
334.27,-0.61,-2.755
334.28,-0.625,-2.595
334.28,-0.605,-2.42
334.28,-0.59,-2.205
334.29,-0.555,-1.935
334.29,-0.505,-1.68
334.29,-0.485,-1.42
334.29,-0.485,-1.185
334.3,-0.485,-0.97
334.3,-0.475,-0.74
334.3,-0.45,-0.51
334.31,-0.415,-0.305
334.31,-0.39,-0.13
334.31,-0.39,0.015
334.31,-0.405,0.165
334.32,-0.425,0.295
334.32,-0.445,0.43
334.32,-0.425,0.555
334.32,-0.4,0.62
334.33,-0.365,0.67
334.33,-0.325,0.7
334.33,-0.32,0.72
334.34,-0.315,0.755
334.34,-0.315,0.79
334.34,-0.325,0.825
334.34,-0.335,0.86
334.35,-0.32,0.86
334.35,-0.325,0.88
334.35,-0.345,0.915
334.36,-0.32,0.965
334.36,-0.32,1
334.36,-0.315,1.025
334.36,-0.315,1.045
334.37,-0.355,1.055
334.37,-0.375,1.09
334.37,-0.375,1.115
334.38,-0.35,1.135
334.38,-0.33,1.17
334.38,-0.32,1.19
334.38,-0.345,1.21
334.39,-0.36,1.245
334.39,-0.365,1.275
334.39,-0.36,1.305
334.39,-0.37,1.33
334.4,-0.36,1.345
334.4,-0.38,1.355
334.4,-0.385,1.395
334.41,-0.39,1.44
334.41,-0.38,1.45
334.41,-0.37,1.49
334.41,-0.375,1.51
334.42,-0.375,1.525
334.42,-0.385,1.55
334.42,-0.385,1.585
334.42,-0.38,1.61
334.43,-0.405,1.615
334.43,-0.415,1.655
334.43,-0.405,1.665
334.44,-0.39,1.695
334.44,-0.36,1.72
334.44,-0.345,1.73
334.44,-0.33,1.745
334.45,-0.325,1.75
334.45,-0.33,1.76
334.45,-0.325,1.79
334.46,-0.315,1.8
334.46,-0.305,1.795
334.46,-0.295,1.795
334.46,-0.285,1.77
334.47,-0.275,1.755
334.47,-0.275,1.755
334.47,-0.25,1.735
334.47,-0.24,1.705
334.48,-0.235,1.68
334.48,-0.225,1.63
334.48,-0.215,1.6
334.49,-0.2,1.545
334.49,-0.18,1.51
334.49,-0.16,1.46
334.49,-0.15,1.41
334.5,-0.155,1.35
334.5,-0.15,1.28
334.5,-0.16,1.235
334.51,-0.145,1.175
334.51,-0.125,1.115
334.51,-0.12,1.055
334.51,-0.135,0.965
334.52,-0.13,0.91
334.52,-0.125,0.855
334.52,-0.12,0.795
334.52,-0.105,0.75
334.53,-0.115,0.68
334.53,-0.125,0.62
334.53,-0.14,0.56
334.54,-0.145,0.505
334.54,-0.14,0.485
334.54,-0.145,0.44
334.54,-0.15,0.385
334.55,-0.16,0.33
334.55,-0.165,0.3
334.55,-0.16,0.26
334.56,-0.17,0.245
334.56,-0.145,0.215
334.56,-0.165,0.18
334.56,-0.175,0.15
334.57,-0.205,0.125
334.57,-0.215,0.105
334.57,-0.205,0.105
334.57,-0.195,0.09
334.58,-0.195,0.075
334.58,-0.205,0.055
334.58,-0.205,0.055
334.59,-0.22,0.03
334.59,-0.22,0.035
334.59,-0.2,0.04
334.59,-0.22,0.02
334.6,-0.225,0.005
334.6,-0.235,0.005
334.6,-0.245,0.005
334.61,-0.23,0.01
334.61,-0.215,0.01
334.61,-0.225,-0.01
334.61,-0.245,-0.01
334.62,-0.24,-0.015
334.62,-0.245,-0.025
334.62,-0.245,-0.005
334.62,-0.235,-0.005
334.63,-0.245,0
334.63,-0.26,-0.02
334.63,-0.27,-0.015
334.64,-0.26,-0.01
334.64,-0.265,-0.015
334.64,-0.245,-0.01
334.64,-0.25,-0.015
334.65,-0.255,-0.025
334.65,-0.27,-0.02
334.65,-0.28,-0.01
334.66,-0.265,-0.01
334.66,-0.265,-0.005
334.66,-0.255,-0.01
334.66,-0.27,-0.015
334.67,-0.275,-0.025
334.67,-0.28,-0.015
334.67,-0.27,-0.005
334.67,-0.265,-0.01
334.68,-0.28,-0.01
334.68,-0.265,-0.005
334.68,-0.275,-0.035
334.69,-0.29,-0.005
334.69,-0.275,-0.005
334.69,-0.275,-0.015
334.69,-0.265,-0.015
334.7,-0.27,-0.025
334.7,-0.285,-0.03
334.7,-0.29,-0.035
334.71,-0.29,-0.02
334.71,-0.27,-0.025
334.71,-0.285,-0.025
334.71,-0.29,-0.05
334.72,-0.3,-0.055
334.72,-0.31,-0.045
334.72,-0.29,-0.04
334.72,-0.28,-0.045
334.73,-0.285,-0.05
334.73,-0.3,-0.07
334.73,-0.3,-0.08
334.74,-0.31,-0.075
334.74,-0.32,-0.065
334.74,-0.295,-0.07
334.74,-0.305,-0.07
334.75,-0.32,-0.085
334.75,-0.33,-0.1
334.75,-0.335,-0.095
334.76,-0.32,-0.1
334.76,-0.305,-0.095
334.76,-0.31,-0.1
334.76,-0.32,-0.12
334.77,-0.33,-0.13
334.77,-0.32,-0.12
334.77,-0.33,-0.125
334.77,-0.32,-0.115
334.78,-0.315,-0.13
334.78,-0.31,-0.145
334.78,-0.33,-0.14
334.79,-0.34,-0.135
334.79,-0.33,-0.14
334.79,-0.315,-0.14
334.79,-0.32,-0.145
334.8,-0.335,-0.17
334.8,-0.35,-0.16
334.8,-0.345,-0.165
334.81,-0.33,-0.15
334.81,-0.32,-0.155
334.81,-0.33,-0.16
334.81,-0.33,-0.18
334.82,-0.345,-0.185
334.82,-0.345,-0.18
334.82,-0.335,-0.185
334.82,-0.32,-0.165
334.83,-0.34,-0.175
334.83,-0.34,-0.18
334.83,-0.355,-0.19
334.84,-0.35,-0.175
334.84,-0.345,-0.17
334.84,-0.335,-0.19
334.84,-0.34,-0.18
334.85,-0.35,-0.2
334.85,-0.355,-0.2
334.85,-0.34,-0.195
334.86,-0.35,-0.185
334.86,-0.34,-0.185
334.86,-0.34,-0.19
334.86,-0.345,-0.21
334.87,-0.355,-0.2
334.87,-0.345,-0.195
334.87,-0.345,-0.19
334.88,-0.335,-0.195
334.88,-0.34,-0.19
334.88,-0.35,-0.205
334.88,-0.355,-0.215
334.89,-0.355,-0.2
334.89,-0.35,-0.195
334.89,-0.34,-0.19
334.89,-0.345,-0.21
334.9,-0.35,-0.205
334.9,-0.35,-0.225
334.9,-0.345,-0.205
334.91,-0.35,-0.205
334.91,-0.35,-0.2
334.91,-0.335,-0.21
334.91,-0.34,-0.205
334.92,-0.35,-0.22
334.92,-0.345,-0.2
334.92,-0.345,-0.19
334.92,-0.34,-0.205
334.93,-0.34,-0.205
334.93,-0.35,-0.22
334.93,-0.36,-0.215
334.94,-0.35,-0.215
334.94,-0.345,-0.205
334.94,-0.33,-0.195
334.94,-0.33,-0.2
334.95,-0.335,-0.215
334.95,-0.345,-0.22
334.95,-0.34,-0.215
334.96,-0.335,-0.195
334.96,-0.315,-0.205
334.96,-0.34,-0.2
334.96,-0.335,-0.21
334.97,-0.335,-0.21
334.97,-0.335,-0.195
334.97,-0.325,-0.185
334.97,-0.3,-0.18
334.98,-0.305,-0.175
334.98,-0.31,-0.16
334.98,-0.305,-0.115
334.99,-0.31,0.045
334.99,-0.275,0.365
334.99,-0.235,0.715
334.99,-0.195,0.835
335,-0.13,0.61
335,0.035,0.36
335,0.38,0.255
335.01,0.72,0.24
335.01,0.76,0.215
335.01,0.52,0.18
335.01,0.245,0.125
335.02,0.11,0.085
335.02,0.08,0.035
335.02,0.115,-0.03
335.02,0.145,-0.15
335.03,0.135,-0.33
335.03,0.145,-0.54
335.03,0.165,-0.755
335.04,0.17,-0.965
335.04,0.195,-1.195
335.04,0.19,-1.45
335.04,0.215,-1.705
335.05,0.195,-1.915
335.05,0.18,-2.105
335.05,0.185,-2.27
335.06,0.2,-2.405
335.06,0.215,-2.515
335.06,0.195,-2.62
335.06,0.165,-2.745
335.07,0.14,-2.88
335.07,0.13,-2.99
335.07,0.09,-3.06
335.07,0.045,-3.095
335.08,-0.02,-3.125
335.08,-0.08,-3.155
335.08,-0.145,-3.195
335.09,-0.185,-3.19
335.09,-0.25,-3.2
335.09,-0.34,-3.205
335.09,-0.435,-3.21
335.1,-0.48,-3.215
335.1,-0.48,-3.225
335.1,-0.45,-3.21
335.11,-0.43,-3.19
335.11,-0.41,-3.16
335.11,-0.425,-3.135
335.11,-0.46,-3.1
335.12,-0.48,-3.03
335.12,-0.495,-2.915
335.12,-0.485,-2.795
335.12,-0.485,-2.65
335.13,-0.48,-2.48
335.13,-0.475,-2.3
335.13,-0.475,-2.07
335.14,-0.46,-1.815
335.14,-0.445,-1.55
335.14,-0.43,-1.3
335.14,-0.425,-1.075
335.15,-0.43,-0.855
335.15,-0.45,-0.625
335.15,-0.445,-0.39
335.16,-0.445,-0.205
335.16,-0.45,-0.035
335.16,-0.47,0.1
335.16,-0.48,0.24
335.17,-0.485,0.365
335.17,-0.465,0.505
335.17,-0.455,0.6
335.17,-0.44,0.66
335.18,-0.435,0.705
335.18,-0.45,0.74
335.18,-0.445,0.785
335.19,-0.445,0.82
335.19,-0.42,0.875
335.19,-0.42,0.895
335.19,-0.43,0.925
335.2,-0.435,0.945
335.2,-0.445,0.97
335.2,-0.435,1.005
335.21,-0.435,1.035
335.21,-0.425,1.06
335.21,-0.425,1.085
335.21,-0.425,1.105
335.22,-0.44,1.13
335.22,-0.435,1.17
335.22,-0.425,1.195
335.22,-0.415,1.245
335.23,-0.42,1.275
335.23,-0.42,1.285
335.23,-0.44,1.32
335.24,-0.44,1.36
335.24,-0.435,1.39
335.24,-0.425,1.42
335.24,-0.425,1.44
335.25,-0.425,1.435
335.25,-0.43,1.465
335.25,-0.42,1.495
335.26,-0.4,1.53
335.26,-0.385,1.545
335.26,-0.385,1.57
335.26,-0.39,1.59
335.27,-0.4,1.605
335.27,-0.38,1.645
335.27,-0.375,1.67
335.27,-0.375,1.685
335.28,-0.385,1.695
335.28,-0.385,1.715
335.28,-0.4,1.725
335.29,-0.38,1.76
335.29,-0.37,1.785
335.29,-0.355,1.795
335.29,-0.355,1.825
335.3,-0.375,1.815
335.3,-0.375,1.835
335.3,-0.365,1.855
335.31,-0.36,1.875
335.31,-0.35,1.87
335.31,-0.36,1.855
335.31,-0.365,1.835
335.32,-0.375,1.825
335.32,-0.37,1.81
335.32,-0.35,1.8
335.32,-0.325,1.775
335.33,-0.335,1.74
335.33,-0.32,1.71
335.33,-0.34,1.655
335.34,-0.32,1.625
335.34,-0.31,1.58
335.34,-0.29,1.525
335.34,-0.275,1.465
335.35,-0.28,1.395
335.35,-0.28,1.33
335.35,-0.285,1.28
335.36,-0.265,1.24
335.36,-0.25,1.17
335.36,-0.255,1.095
335.36,-0.25,1.03
335.37,-0.255,0.96
335.37,-0.245,0.895
335.37,-0.235,0.84
335.38,-0.23,0.775
335.38,-0.225,0.715
335.38,-0.235,0.65
335.38,-0.245,0.6
335.39,-0.25,0.55
335.39,-0.245,0.515
335.39,-0.23,0.475
335.39,-0.235,0.42
335.4,-0.255,0.375
335.4,-0.27,0.325
335.4,-0.265,0.29
335.41,-0.26,0.265
335.41,-0.255,0.235
335.41,-0.265,0.205
335.41,-0.275,0.165
335.42,-0.28,0.135
335.42,-0.29,0.12
335.42,-0.275,0.115
335.42,-0.285,0.105
335.43,-0.28,0.08
335.43,-0.295,0.05
335.43,-0.31,0.035
335.44,-0.31,0.035
335.44,-0.305,0.04
335.44,-0.29,0.02
335.44,-0.285,0.02
335.45,-0.31,0
335.45,-0.315,-0.005
335.45,-0.31,0
335.46,-0.32,-0.005
335.46,-0.315,0.005
335.46,-0.295,-0.005
335.46,-0.315,-0.02
335.47,-0.335,-0.02
335.47,-0.33,-0.015
335.47,-0.315,-0.01
335.47,-0.315,-0.015
335.48,-0.315,0
335.48,-0.33,-0.02
335.48,-0.335,-0.03
335.49,-0.33,-0.03
335.49,-0.32,-0.005
335.49,-0.325,0.005
335.49,-0.325,-0.005
335.5,-0.335,-0.005
335.5,-0.34,-0.01
335.5,-0.34,-0.01
335.51,-0.33,-0.01
335.51,-0.315,0.005
335.51,-0.315,-0.005
335.51,-0.335,-0.025
335.52,-0.345,-0.02
335.52,-0.345,-0.015
335.52,-0.335,0.005
335.52,-0.33,-0.015
335.53,-0.335,-0.005
335.53,-0.345,-0.02
335.53,-0.355,-0.03
335.54,-0.36,-0.015
335.54,-0.335,0
335.54,-0.33,-0.005
335.54,-0.335,-0.015
335.55,-0.35,-0.03
335.55,-0.36,-0.04
335.55,-0.35,-0.035
335.56,-0.345,-0.045
335.56,-0.345,-0.04
335.56,-0.345,-0.055
335.56,-0.36,-0.06
335.57,-0.365,-0.06
335.57,-0.365,-0.07
335.57,-0.35,-0.06
335.57,-0.345,-0.075
335.58,-0.34,-0.065
335.58,-0.355,-0.09
335.58,-0.37,-0.1
335.59,-0.37,-0.09
335.59,-0.355,-0.09
335.59,-0.355,-0.09
335.59,-0.355,-0.12
335.6,-0.37,-0.115
335.6,-0.375,-0.12
335.6,-0.375,-0.125
335.61,-0.365,-0.13
335.61,-0.355,-0.13
335.61,-0.35,-0.14
335.61,-0.37,-0.155
335.62,-0.38,-0.155
335.62,-0.365,-0.15
335.62,-0.37,-0.15
335.62,-0.37,-0.15
335.63,-0.365,-0.155
335.63,-0.38,-0.17
335.63,-0.385,-0.185
335.64,-0.385,-0.17
335.64,-0.375,-0.165
335.64,-0.38,-0.175
335.64,-0.385,-0.175
335.65,-0.395,-0.19
335.65,-0.385,-0.19
335.65,-0.39,-0.19
335.66,-0.375,-0.185
335.66,-0.37,-0.185
335.66,-0.375,-0.19
335.66,-0.39,-0.21
335.67,-0.385,-0.225
335.67,-0.385,-0.22
335.67,-0.375,-0.205
335.67,-0.38,-0.21
335.68,-0.37,-0.21
335.68,-0.38,-0.225
335.68,-0.4,-0.215
335.69,-0.385,-0.21
335.69,-0.385,-0.205
335.69,-0.37,-0.215
335.69,-0.37,-0.2
335.7,-0.38,-0.225
335.7,-0.395,-0.23
335.7,-0.395,-0.22
335.71,-0.385,-0.225
335.71,-0.375,-0.21
335.71,-0.38,-0.23
335.71,-0.39,-0.23
335.72,-0.39,-0.225
335.72,-0.38,-0.225
335.72,-0.37,-0.215
335.72,-0.365,-0.22
335.73,-0.37,-0.22
335.73,-0.375,-0.235
335.73,-0.38,-0.24
335.74,-0.375,-0.225
335.74,-0.38,-0.22
335.74,-0.355,-0.215
335.74,-0.365,-0.23
335.75,-0.385,-0.235
335.75,-0.395,-0.24
335.75,-0.39,-0.23
335.76,-0.38,-0.225
335.76,-0.375,-0.23
335.76,-0.36,-0.235
335.76,-0.365,-0.245
335.77,-0.38,-0.25
335.77,-0.375,-0.235
335.77,-0.365,-0.225
335.77,-0.355,-0.23
335.78,-0.345,-0.23
335.78,-0.365,-0.245
335.78,-0.38,-0.245
335.79,-0.365,-0.255
335.79,-0.36,-0.225
335.79,-0.36,-0.23
335.79,-0.37,-0.245
335.8,-0.365,-0.235
335.8,-0.385,-0.255
335.8,-0.375,-0.24
335.81,-0.36,-0.235
335.81,-0.36,-0.23
335.81,-0.345,-0.22
335.81,-0.35,-0.22
335.82,-0.37,-0.205
335.82,-0.355,-0.12
335.82,-0.325,0.105
335.82,-0.3,0.495
335.83,-0.25,0.755
335.83,-0.2,0.655
335.83,-0.085,0.385
335.84,0.21,0.215
335.84,0.6,0.145
335.84,0.81,0.1
335.84,0.66,0.025
335.85,0.325,-0.045
335.85,0.12,-0.125
335.85,0.055,-0.23
335.86,0.06,-0.345
335.86,0.075,-0.495
335.86,0.08,-0.65
335.86,0.07,-0.86
335.87,0.06,-1.08
335.87,0.05,-1.265
335.87,0.085,-1.41
335.88,0.1,-1.54
335.88,0.095,-1.695
335.88,0.065,-1.84
335.88,0.05,-2.025
335.89,0.04,-2.25
335.89,0.06,-2.445
335.89,0.065,-2.615
335.89,0.04,-2.725
335.9,0.015,-2.83
335.9,-0.02,-2.94
335.9,-0.06,-3.045
335.91,-0.105,-3.09
335.91,-0.15,-3.13
335.91,-0.23,-3.17
335.91,-0.325,-3.2
335.92,-0.38,-3.215
335.92,-0.46,-3.23
335.92,-0.54,-3.215
335.92,-0.625,-3.22
335.93,-0.64,-3.22
335.93,-0.625,-3.23
335.93,-0.58,-3.205
335.94,-0.525,-3.175
335.94,-0.49,-3.125
335.94,-0.48,-3.05
335.94,-0.485,-2.955
335.95,-0.49,-2.835
335.95,-0.505,-2.65
335.95,-0.495,-2.43
335.96,-0.47,-2.17
335.96,-0.435,-1.9
335.96,-0.4,-1.625
335.96,-0.38,-1.35
335.97,-0.375,-1.1
335.97,-0.385,-0.855
335.97,-0.405,-0.63
335.97,-0.41,-0.415
335.98,-0.42,-0.215
335.98,-0.435,-0.02
335.98,-0.44,0.16
335.99,-0.435,0.335
335.99,-0.43,0.465
335.99,-0.415,0.55
335.99,-0.415,0.62
336,-0.405,0.635
336,-0.42,0.685
336,-0.425,0.725
336.01,-0.39,0.775
336.01,-0.395,0.805
336.01,-0.39,0.845
336.01,-0.395,0.86
336.02,-0.395,0.885
336.02,-0.4,0.92
336.02,-0.39,0.95
336.02,-0.375,0.99
336.03,-0.385,1.015
336.03,-0.39,1.035
336.03,-0.4,1.045
336.04,-0.39,1.09
336.04,-0.38,1.12
336.04,-0.385,1.155
336.04,-0.39,1.175
336.05,-0.4,1.185
336.05,-0.41,1.225
336.05,-0.405,1.245
336.06,-0.405,1.285
336.06,-0.405,1.31
336.06,-0.39,1.33
336.06,-0.405,1.36
336.07,-0.405,1.37
336.07,-0.41,1.42
336.07,-0.385,1.45
336.07,-0.385,1.48
336.08,-0.38,1.51
336.08,-0.39,1.52
336.08,-0.385,1.55
336.09,-0.385,1.585
336.09,-0.365,1.625
336.09,-0.35,1.65
336.09,-0.365,1.665
336.1,-0.365,1.68
336.1,-0.375,1.695
336.1,-0.365,1.73
336.11,-0.345,1.75
336.11,-0.335,1.765
336.11,-0.325,1.775
336.11,-0.32,1.78
336.12,-0.32,1.77
336.12,-0.3,1.79
336.12,-0.31,1.785
336.12,-0.28,1.77
336.13,-0.28,1.76
336.13,-0.265,1.725
336.13,-0.285,1.69
336.14,-0.26,1.695
336.14,-0.26,1.66
336.14,-0.255,1.625
336.14,-0.25,1.565
336.15,-0.255,1.51
336.15,-0.27,1.46
336.15,-0.26,1.41
336.16,-0.245,1.35
336.16,-0.215,1.285
336.16,-0.21,1.215
336.16,-0.205,1.14
336.17,-0.22,1.07
336.17,-0.215,0.995
336.17,-0.185,0.94
336.17,-0.18,0.86
336.18,-0.175,0.795
336.18,-0.185,0.715
336.18,-0.2,0.645
336.19,-0.19,0.59
336.19,-0.195,0.54
336.19,-0.175,0.475
336.19,-0.19,0.425
336.2,-0.205,0.36
336.2,-0.23,0.32
336.2,-0.225,0.275
336.21,-0.23,0.255
336.21,-0.215,0.21
336.21,-0.225,0.18
336.21,-0.235,0.15
336.22,-0.25,0.11
336.22,-0.245,0.095
336.22,-0.255,0.085
336.22,-0.24,0.065
336.23,-0.245,0.05
336.23,-0.26,0.035
336.23,-0.265,0.01
336.24,-0.275,0.03
336.24,-0.275,0.035
336.24,-0.265,0.035
336.24,-0.28,0.015
336.25,-0.29,0
336.25,-0.31,0.005
336.25,-0.305,0.005
336.26,-0.295,0.02
336.26,-0.3,0.01
336.26,-0.29,0.005
336.26,-0.295,-0.005
336.27,-0.305,-0.01
336.27,-0.305,-0.005
336.27,-0.28,0.005
336.27,-0.28,0.01
336.28,-0.29,0
336.28,-0.31,-0.02
336.28,-0.31,-0.02
336.29,-0.31,-0.035
336.29,-0.285,-0.04
336.29,-0.27,-0.05
336.29,-0.26,-0.07
336.3,-0.27,-0.085
336.3,-0.285,-0.09
336.3,-0.275,-0.095
336.31,-0.275,-0.095
336.31,-0.26,-0.095
336.31,-0.255,-0.1
336.31,-0.28,-0.12
336.32,-0.29,-0.13
336.32,-0.29,-0.12
336.32,-0.285,-0.105
336.32,-0.27,-0.105
336.33,-0.275,-0.095
336.33,-0.29,-0.1
336.33,-0.315,-0.115
336.34,-0.34,-0.1
336.34,-0.335,-0.1
336.34,-0.35,-0.105
336.34,-0.345,-0.11
336.35,-0.35,-0.125
336.35,-0.355,-0.13
336.35,-0.36,-0.13
336.36,-0.365,-0.12
336.36,-0.345,-0.115
336.36,-0.36,-0.13
336.36,-0.365,-0.14
336.37,-0.36,-0.14
336.37,-0.37,-0.135
336.37,-0.36,-0.13
336.38,-0.365,-0.14
336.38,-0.36,-0.155
336.38,-0.38,-0.165
336.38,-0.39,-0.165
336.39,-0.385,-0.175
336.39,-0.38,-0.165
336.39,-0.385,-0.18
336.39,-0.395,-0.185
336.4,-0.415,-0.205
336.4,-0.415,-0.205
336.4,-0.405,-0.21
336.41,-0.39,-0.205
336.41,-0.385,-0.205
336.41,-0.375,-0.205
336.41,-0.395,-0.225
336.42,-0.41,-0.22
336.42,-0.425,-0.22
336.42,-0.405,-0.21
336.42,-0.415,-0.21
336.43,-0.41,-0.225
336.43,-0.395,-0.24
336.43,-0.405,-0.25
336.44,-0.415,-0.24
336.44,-0.415,-0.225
336.44,-0.4,-0.235
336.44,-0.41,-0.245
336.45,-0.405,-0.25
336.45,-0.415,-0.26
336.45,-0.415,-0.255
336.46,-0.39,-0.235
336.46,-0.39,-0.25
336.46,-0.39,-0.24
336.46,-0.395,-0.265
336.47,-0.39,-0.26
336.47,-0.385,-0.25
336.47,-0.385,-0.23
336.47,-0.375,-0.245
336.48,-0.385,-0.245
336.48,-0.405,-0.26
336.48,-0.425,-0.265
336.49,-0.415,-0.25
336.49,-0.4,-0.24
336.49,-0.385,-0.26
336.49,-0.395,-0.255
336.5,-0.405,-0.27
336.5,-0.42,-0.265
336.5,-0.425,-0.255
336.51,-0.415,-0.24
336.51,-0.41,-0.255
336.51,-0.395,-0.265
336.51,-0.39,-0.26
336.52,-0.4,-0.265
336.52,-0.39,-0.26
336.52,-0.38,-0.245
336.52,-0.37,-0.245
336.53,-0.375,-0.245
336.53,-0.375,-0.27
336.53,-0.39,-0.26
336.54,-0.375,-0.255
336.54,-0.375,-0.255
336.54,-0.365,-0.25
336.54,-0.365,-0.255
336.55,-0.38,-0.26
336.55,-0.4,-0.265
336.55,-0.405,-0.255
336.56,-0.39,-0.25
336.56,-0.39,-0.25
336.56,-0.38,-0.26
336.56,-0.38,-0.26
336.57,-0.395,-0.26
336.57,-0.39,-0.26
336.57,-0.395,-0.255
336.57,-0.39,-0.25
336.58,-0.38,-0.255
336.58,-0.39,-0.26
336.58,-0.39,-0.265
336.59,-0.39,-0.26
336.59,-0.375,-0.26
336.59,-0.37,-0.25
336.59,-0.375,-0.245
336.6,-0.39,-0.255
336.6,-0.39,-0.255
336.6,-0.385,-0.24
336.61,-0.365,-0.21
336.61,-0.345,-0.195
336.61,-0.325,-0.145
336.61,-0.32,0.025
336.62,-0.295,0.385
336.62,-0.27,0.785
336.62,-0.2,0.84
336.62,-0.095,0.58
336.63,0.15,0.32
336.63,0.535,0.205
336.63,0.85,0.175
336.64,0.82,0.115
336.64,0.495,0.08
336.64,0.195,0.03
336.64,0.07,-0.04
336.65,0.065,-0.145
336.65,0.075,-0.295
336.65,0.095,-0.48
336.66,0.115,-0.695
336.66,0.115,-0.96
336.66,0.135,-1.225
336.66,0.125,-1.47
336.67,0.12,-1.75
336.67,0.11,-1.995
336.67,0.1,-2.205
336.67,0.09,-2.375
336.68,0.09,-2.52
336.68,0.1,-2.64
336.68,0.085,-2.735
336.69,0.09,-2.785
336.69,0.085,-2.845
336.69,0.105,-2.925
336.69,0.095,-3.035
336.7,0.05,-3.11
336.7,0.01,-3.15
336.7,-0.05,-3.16
336.71,-0.105,-3.17
336.71,-0.14,-3.195
336.71,-0.215,-3.215
336.71,-0.33,-3.235
336.72,-0.44,-3.24
336.72,-0.47,-3.24
336.72,-0.445,-3.215
336.72,-0.4,-3.21
336.73,-0.365,-3.19
336.73,-0.365,-3.17
336.73,-0.405,-3.105
336.74,-0.425,-3.01
336.74,-0.43,-2.9
336.74,-0.46,-2.785
336.74,-0.485,-2.645
336.75,-0.495,-2.52
336.75,-0.495,-2.35
336.75,-0.475,-2.15
336.76,-0.455,-1.89
336.76,-0.435,-1.655
336.76,-0.435,-1.425
336.76,-0.455,-1.215
336.77,-0.45,-0.98
336.77,-0.445,-0.745
336.77,-0.43,-0.525
336.77,-0.42,-0.33
336.78,-0.435,-0.165
336.78,-0.46,-0.035
336.78,-0.495,0.095
336.79,-0.51,0.265
336.79,-0.495,0.385
336.79,-0.465,0.495
336.79,-0.435,0.575
336.8,-0.43,0.63
336.8,-0.43,0.67
336.8,-0.425,0.725
336.81,-0.41,0.775
336.81,-0.4,0.81
336.81,-0.405,0.84
336.81,-0.395,0.87
336.82,-0.4,0.9
336.82,-0.395,0.945
336.82,-0.42,1
336.82,-0.425,1.025
336.83,-0.425,1.06
336.83,-0.435,1.075
336.83,-0.425,1.115
336.84,-0.415,1.165
336.84,-0.395,1.205
336.84,-0.375,1.25
336.84,-0.375,1.28
336.85,-0.38,1.31
336.85,-0.405,1.35
336.85,-0.395,1.39
336.86,-0.375,1.435
336.86,-0.375,1.475
336.86,-0.375,1.51
336.86,-0.39,1.53
336.87,-0.4,1.56
336.87,-0.39,1.615
336.87,-0.385,1.65
336.88,-0.375,1.69
336.88,-0.36,1.71
336.88,-0.37,1.73
336.88,-0.365,1.755
336.89,-0.35,1.8
336.89,-0.335,1.835
336.89,-0.325,1.86
336.89,-0.305,1.87
336.9,-0.315,1.885
336.9,-0.31,1.89
336.9,-0.3,1.93
336.91,-0.29,1.94
336.91,-0.295,1.935
336.91,-0.285,1.93
336.91,-0.27,1.91
336.92,-0.255,1.895
336.92,-0.245,1.89
336.92,-0.22,1.875
336.92,-0.21,1.84
336.93,-0.21,1.8
336.93,-0.205,1.755
336.93,-0.215,1.705
336.94,-0.225,1.66
336.94,-0.22,1.64
336.94,-0.21,1.575
336.94,-0.215,1.515
336.95,-0.195,1.445
336.95,-0.175,1.37
336.95,-0.145,1.31
336.96,-0.135,1.26
336.96,-0.145,1.18
336.96,-0.165,1.1
336.96,-0.16,1.025
336.97,-0.15,0.955
336.97,-0.145,0.9
336.97,-0.13,0.835
336.97,-0.125,0.77
336.98,-0.125,0.705
336.98,-0.135,0.64
336.98,-0.16,0.57
336.99,-0.17,0.525
336.99,-0.185,0.48
336.99,-0.2,0.44
336.99,-0.195,0.38
337,-0.19,0.34
337,-0.19,0.295
337,-0.19,0.265
337.01,-0.19,0.235
337.01,-0.19,0.2
337.01,-0.205,0.175
337.01,-0.21,0.13
337.02,-0.205,0.11
337.02,-0.205,0.085
337.02,-0.21,0.08
337.02,-0.2,0.055
337.03,-0.215,0.03
337.03,-0.205,0.02
337.03,-0.225,-0.005
337.04,-0.23,-0.015
337.04,-0.23,-0.005
337.04,-0.235,-0.035
337.04,-0.25,-0.04
337.05,-0.23,-0.06
337.05,-0.23,-0.075
337.05,-0.22,-0.075
337.06,-0.215,-0.07
337.06,-0.23,-0.075
337.06,-0.245,-0.08
337.06,-0.255,-0.1
337.07,-0.25,-0.095
337.07,-0.235,-0.1
337.07,-0.235,-0.09
337.07,-0.23,-0.08
337.08,-0.24,-0.1
337.08,-0.255,-0.1
337.08,-0.245,-0.105
337.09,-0.24,-0.08
337.09,-0.225,-0.09
337.09,-0.22,-0.09
337.09,-0.235,-0.09
337.1,-0.245,-0.105
337.1,-0.25,-0.11
337.1,-0.245,-0.11
337.11,-0.24,-0.095
337.11,-0.23,-0.09
337.11,-0.23,-0.09
337.11,-0.25,-0.105
337.12,-0.25,-0.1
337.12,-0.24,-0.095
337.12,-0.23,-0.09
337.12,-0.225,-0.09
337.13,-0.23,-0.09
337.13,-0.25,-0.095
337.13,-0.265,-0.105
337.14,-0.27,-0.1
337.14,-0.26,-0.085
337.14,-0.265,-0.095
337.14,-0.26,-0.105
337.15,-0.26,-0.11
337.15,-0.285,-0.115
337.15,-0.265,-0.105
337.16,-0.255,-0.095
337.16,-0.245,-0.11
337.16,-0.25,-0.105
337.16,-0.27,-0.125
337.17,-0.27,-0.12
337.17,-0.285,-0.125
337.17,-0.285,-0.12
337.17,-0.275,-0.12
337.18,-0.275,-0.115
337.18,-0.275,-0.135
337.18,-0.29,-0.135
337.19,-0.295,-0.13
337.19,-0.29,-0.115
337.19,-0.27,-0.13
337.19,-0.265,-0.12
337.2,-0.28,-0.13
337.2,-0.29,-0.115
337.2,-0.295,-0.115
337.21,-0.295,-0.105
337.21,-0.285,-0.105
337.21,-0.28,-0.105
337.21,-0.29,-0.11
337.22,-0.305,-0.125
337.22,-0.31,-0.115
337.22,-0.305,-0.11
337.22,-0.31,-0.13
337.23,-0.31,-0.13
337.23,-0.31,-0.145
337.23,-0.3,-0.15
337.24,-0.29,-0.135
337.24,-0.29,-0.125
337.24,-0.295,-0.14
337.24,-0.295,-0.16
337.25,-0.295,-0.18
337.25,-0.29,-0.2
337.25,-0.27,-0.2
337.26,-0.26,-0.21
337.26,-0.25,-0.2
337.26,-0.25,-0.215
337.26,-0.245,-0.22
337.27,-0.265,-0.235
337.27,-0.265,-0.24
337.27,-0.255,-0.235
337.27,-0.26,-0.26
337.28,-0.26,-0.26
337.28,-0.28,-0.27
337.28,-0.285,-0.285
337.29,-0.28,-0.26
337.29,-0.275,-0.24
337.29,-0.26,-0.24
337.29,-0.265,-0.25
337.3,-0.285,-0.255
337.3,-0.3,-0.26
337.3,-0.305,-0.255
337.31,-0.31,-0.245
337.31,-0.32,-0.25
337.31,-0.325,-0.245
337.31,-0.335,-0.26
337.32,-0.34,-0.26
337.32,-0.34,-0.25
337.32,-0.32,-0.245
337.32,-0.315,-0.245
337.33,-0.32,-0.25
337.33,-0.325,-0.255
337.33,-0.34,-0.26
337.34,-0.34,-0.25
337.34,-0.34,-0.245
337.34,-0.32,-0.25
337.34,-0.32,-0.255
337.35,-0.335,-0.255
337.35,-0.35,-0.26
337.35,-0.335,-0.255
337.36,-0.34,-0.24
337.36,-0.335,-0.245
337.36,-0.335,-0.26
337.36,-0.345,-0.26
337.37,-0.35,-0.26
337.37,-0.355,-0.255
337.37,-0.34,-0.235
337.38,-0.325,-0.24
337.38,-0.33,-0.23
337.38,-0.34,-0.245
337.38,-0.345,-0.245
337.39,-0.34,-0.23
337.39,-0.31,-0.225
337.39,-0.305,-0.2
337.39,-0.295,-0.15
337.4,-0.295,-0.02
337.4,-0.285,0.295
337.4,-0.27,0.71
337.41,-0.205,0.845
337.41,-0.125,0.62
337.41,0.03,0.36
337.41,0.355,0.22
337.42,0.7,0.19
337.42,0.785,0.17
337.42,0.57,0.145
337.42,0.28,0.125
337.43,0.115,0.1
337.43,0.085,0.045
337.43,0.085,-0.015
337.44,0.095,-0.105
337.44,0.125,-0.21
337.44,0.145,-0.39
337.44,0.17,-0.61
337.45,0.2,-0.83
337.45,0.21,-1.05
337.45,0.235,-1.275
337.46,0.26,-1.5
337.46,0.275,-1.725
337.46,0.27,-1.92
337.46,0.28,-2.075
337.47,0.27,-2.21
337.47,0.305,-2.325
337.47,0.34,-2.39
337.47,0.33,-2.495
337.48,0.325,-2.605
337.48,0.32,-2.735
337.48,0.295,-2.85
337.49,0.265,-2.925
337.49,0.225,-2.965
337.49,0.155,-3.015
337.49,0.095,-3.05
337.5,0.055,-3.085
337.5,-0.02,-3.125
337.5,-0.115,-3.14
337.51,-0.205,-3.15
337.51,-0.305,-3.145
337.51,-0.36,-3.16
337.51,-0.365,-3.165
337.52,-0.375,-3.165
337.52,-0.34,-3.14
337.52,-0.33,-3.11
337.52,-0.34,-3.05
337.53,-0.36,-2.97
337.53,-0.395,-2.885
337.53,-0.425,-2.76
337.54,-0.465,-2.625
337.54,-0.465,-2.48
337.54,-0.45,-2.325
337.54,-0.45,-2.145
337.55,-0.465,-1.94
337.55,-0.46,-1.72
337.55,-0.46,-1.495
337.56,-0.475,-1.28
337.56,-0.47,-1.07
337.56,-0.465,-0.865
337.56,-0.475,-0.675
337.57,-0.485,-0.485
337.57,-0.485,-0.285
337.57,-0.48,-0.11
337.57,-0.485,0.03
337.58,-0.51,0.165
337.58,-0.525,0.28
337.58,-0.52,0.405
337.59,-0.515,0.51
337.59,-0.485,0.6
337.59,-0.49,0.64
337.59,-0.49,0.68
337.6,-0.49,0.72
337.6,-0.5,0.755
337.6,-0.47,0.795
337.61,-0.47,0.835
337.61,-0.47,0.865
337.61,-0.455,0.905
337.61,-0.48,0.91
337.62,-0.485,0.94
337.62,-0.485,0.97
337.62,-0.475,1.015
337.62,-0.46,1.035
337.63,-0.455,1.065
337.63,-0.475,1.1
337.63,-0.475,1.135
337.64,-0.47,1.165
337.64,-0.475,1.19
337.64,-0.47,1.24
337.64,-0.465,1.27
337.65,-0.475,1.295
337.65,-0.485,1.335
337.65,-0.49,1.365
337.66,-0.48,1.415
337.66,-0.475,1.45
337.66,-0.48,1.475
337.66,-0.49,1.505
337.67,-0.485,1.54
337.67,-0.475,1.595
337.67,-0.475,1.625
337.67,-0.47,1.665
337.68,-0.465,1.695
337.68,-0.47,1.715
337.68,-0.48,1.73
337.69,-0.475,1.78
337.69,-0.46,1.805
337.69,-0.45,1.83
337.69,-0.44,1.845
337.7,-0.45,1.85
337.7,-0.445,1.865
337.7,-0.44,1.89
337.71,-0.43,1.9
337.71,-0.415,1.91
337.71,-0.415,1.92
337.71,-0.425,1.905
337.72,-0.415,1.895
337.72,-0.395,1.885
337.72,-0.365,1.885
337.72,-0.355,1.865
337.73,-0.365,1.83
337.73,-0.365,1.795
337.73,-0.34,1.75
337.74,-0.335,1.715
337.74,-0.32,1.685
337.74,-0.3,1.65
337.74,-0.305,1.585
337.75,-0.3,1.525
337.75,-0.32,1.47
337.75,-0.29,1.415
337.76,-0.28,1.38
337.76,-0.265,1.32
337.76,-0.265,1.255
337.76,-0.26,1.17
337.77,-0.27,1.11
337.77,-0.255,1.055
337.77,-0.245,1
337.77,-0.23,0.935
337.78,-0.24,0.86
337.78,-0.25,0.79
337.78,-0.255,0.73
337.79,-0.255,0.675
337.79,-0.255,0.65
337.79,-0.24,0.585
337.79,-0.25,0.535
337.8,-0.26,0.47
337.8,-0.27,0.42
337.8,-0.26,0.39
337.81,-0.265,0.37
337.81,-0.255,0.32
337.81,-0.275,0.28
337.81,-0.3,0.24
337.82,-0.295,0.21
337.82,-0.295,0.185
337.82,-0.28,0.175
337.82,-0.28,0.15
337.83,-0.275,0.125
337.83,-0.29,0.085
337.83,-0.3,0.065
337.84,-0.29,0.06
337.84,-0.315,0.04
337.84,-0.29,0.035
337.84,-0.295,0.005
337.85,-0.3,-0.01
337.85,-0.315,-0.03
337.85,-0.31,-0.025
337.86,-0.32,-0.035
337.86,-0.32,-0.045
337.86,-0.31,-0.055
337.86,-0.315,-0.07
337.87,-0.325,-0.09
337.87,-0.31,-0.075
337.87,-0.315,-0.065
337.88,-0.315,-0.075
337.88,-0.315,-0.075
337.88,-0.315,-0.095
337.88,-0.32,-0.095
337.89,-0.315,-0.085
337.89,-0.31,-0.08
337.89,-0.31,-0.08
337.89,-0.31,-0.085
337.9,-0.325,-0.085
337.9,-0.32,-0.095
337.9,-0.31,-0.09
337.91,-0.305,-0.08
337.91,-0.29,-0.085
337.91,-0.305,-0.075
337.91,-0.315,-0.095
337.92,-0.32,-0.08
337.92,-0.33,-0.08
337.92,-0.3,-0.075
337.92,-0.3,-0.06
337.93,-0.295,-0.065
337.93,-0.305,-0.07
337.93,-0.315,-0.075
337.94,-0.32,-0.075
337.94,-0.305,-0.05
337.94,-0.295,-0.05
337.94,-0.295,-0.055
337.95,-0.305,-0.065
337.95,-0.32,-0.065
337.95,-0.32,-0.06
337.96,-0.29,-0.05
337.96,-0.3,-0.05
337.96,-0.3,-0.05
337.96,-0.31,-0.065
337.97,-0.32,-0.06
337.97,-0.32,-0.065
337.97,-0.305,-0.065
337.97,-0.3,-0.065
337.98,-0.305,-0.065
337.98,-0.32,-0.065
337.98,-0.33,-0.07
337.99,-0.325,-0.07
337.99,-0.31,-0.065
337.99,-0.305,-0.065
337.99,-0.3,-0.09
338,-0.32,-0.1
338,-0.34,-0.105
338,-0.33,-0.095
338.01,-0.325,-0.11
338.01,-0.31,-0.1
338.01,-0.325,-0.11
338.01,-0.325,-0.13
338.02,-0.335,-0.14
338.02,-0.335,-0.125
338.02,-0.335,-0.12
338.02,-0.32,-0.115
338.03,-0.33,-0.13
338.03,-0.34,-0.145
338.03,-0.345,-0.15
338.04,-0.34,-0.145
338.04,-0.34,-0.145
338.04,-0.325,-0.135
338.04,-0.33,-0.145
338.05,-0.34,-0.17
338.05,-0.355,-0.16
338.05,-0.355,-0.17
338.06,-0.335,-0.16
338.06,-0.34,-0.16
338.06,-0.35,-0.165
338.06,-0.345,-0.18
338.07,-0.365,-0.195
338.07,-0.355,-0.185
338.07,-0.35,-0.17
338.07,-0.34,-0.185
338.08,-0.335,-0.19
338.08,-0.345,-0.19
338.08,-0.36,-0.2
338.09,-0.36,-0.195
338.09,-0.345,-0.185
338.09,-0.34,-0.19
338.09,-0.345,-0.195
338.1,-0.345,-0.215
338.1,-0.36,-0.205
338.1,-0.355,-0.21
338.11,-0.36,-0.2
338.11,-0.355,-0.2
338.11,-0.355,-0.205
338.11,-0.36,-0.215
338.12,-0.365,-0.225
338.12,-0.37,-0.215
338.12,-0.355,-0.205
338.12,-0.355,-0.21
338.13,-0.35,-0.22
338.13,-0.355,-0.23
338.13,-0.365,-0.22
338.14,-0.365,-0.22
338.14,-0.36,-0.21
338.14,-0.355,-0.215
338.14,-0.36,-0.225
338.15,-0.355,-0.23
338.15,-0.365,-0.245
338.15,-0.365,-0.225
338.16,-0.355,-0.225
338.16,-0.345,-0.23
338.16,-0.355,-0.24
338.16,-0.355,-0.24
338.17,-0.35,-0.245
338.17,-0.37,-0.235
338.17,-0.36,-0.225
338.17,-0.345,-0.225
338.18,-0.36,-0.225
338.18,-0.35,-0.23
338.18,-0.365,-0.24
338.19,-0.355,-0.225
338.19,-0.355,-0.225
338.19,-0.345,-0.225
338.19,-0.34,-0.225
338.2,-0.34,-0.23
338.2,-0.35,-0.23
338.2,-0.35,-0.21
338.21,-0.335,-0.2
338.21,-0.335,-0.205
338.21,-0.335,-0.185
338.21,-0.345,-0.19
338.22,-0.345,-0.185
338.22,-0.345,-0.165
338.22,-0.34,-0.16
338.22,-0.335,-0.15
338.23,-0.32,-0.12
338.23,-0.335,-0.09
338.23,-0.33,0.045
338.24,-0.315,0.35
338.24,-0.275,0.73
338.24,-0.225,0.875
338.24,-0.15,0.69
338.25,-0.005,0.41
338.25,0.34,0.275
338.25,0.72,0.23
338.26,0.83,0.2
338.26,0.59,0.155
338.26,0.29,0.11
338.26,0.125,0.055
338.27,0.115,0
338.27,0.15,-0.065
338.27,0.165,-0.16
338.27,0.185,-0.295
338.28,0.185,-0.49
338.28,0.19,-0.71
338.28,0.185,-0.94
338.29,0.195,-1.16
338.29,0.21,-1.385
338.29,0.22,-1.645
338.29,0.21,-1.89
338.3,0.195,-2.105
338.3,0.185,-2.265
338.3,0.185,-2.39
338.31,0.21,-2.5
338.31,0.225,-2.59
338.31,0.2,-2.695
338.31,0.17,-2.795
338.32,0.14,-2.895
338.32,0.13,-2.985
338.32,0.1,-3.045
338.32,0.045,-3.085
338.33,-0.015,-3.115
338.33,-0.065,-3.145
338.33,-0.125,-3.155
338.34,-0.15,-3.165
338.34,-0.21,-3.165
338.34,-0.3,-3.175
338.34,-0.385,-3.18
338.35,-0.43,-3.185
338.35,-0.42,-3.18
338.35,-0.375,-3.165
338.36,-0.33,-3.15
338.36,-0.3,-3.13
338.36,-0.28,-3.105
338.36,-0.305,-3.05
338.37,-0.32,-2.97
338.37,-0.35,-2.85
338.37,-0.365,-2.72
338.38,-0.38,-2.605
338.38,-0.405,-2.495
338.38,-0.415,-2.36
338.38,-0.42,-2.19
338.39,-0.42,-1.98
338.39,-0.425,-1.75
338.39,-0.42,-1.53
338.39,-0.425,-1.32
338.4,-0.44,-1.11
338.4,-0.465,-0.875
338.4,-0.445,-0.655
338.41,-0.465,-0.455
338.41,-0.47,-0.27
338.41,-0.475,-0.1
338.41,-0.5,0.04
338.42,-0.525,0.185
338.42,-0.525,0.33
338.42,-0.495,0.45
338.42,-0.48,0.525
338.43,-0.48,0.585
338.43,-0.485,0.625
338.43,-0.5,0.675
338.44,-0.51,0.72
338.44,-0.485,0.76
338.44,-0.48,0.805
338.44,-0.48,0.825
338.45,-0.48,0.865
338.45,-0.485,0.89
338.45,-0.485,0.92
338.46,-0.475,0.96
338.46,-0.475,0.985
338.46,-0.475,1.015
338.46,-0.48,1.03
338.47,-0.49,1.065
338.47,-0.48,1.105
338.47,-0.485,1.13
338.47,-0.475,1.16
338.48,-0.485,1.185
338.48,-0.495,1.215
338.48,-0.51,1.24
338.49,-0.5,1.275
338.49,-0.48,1.32
338.49,-0.48,1.355
338.49,-0.485,1.395
338.5,-0.49,1.405
338.5,-0.49,1.445
338.5,-0.485,1.485
338.51,-0.465,1.53
338.51,-0.47,1.555
338.51,-0.475,1.58
338.51,-0.475,1.615
338.52,-0.475,1.64
338.52,-0.475,1.675
338.52,-0.455,1.715
338.52,-0.445,1.74
338.53,-0.455,1.76
338.53,-0.45,1.785
338.53,-0.455,1.805
338.54,-0.435,1.83
338.54,-0.42,1.85
338.54,-0.4,1.86
338.54,-0.41,1.87
338.55,-0.415,1.865
338.55,-0.405,1.865
338.55,-0.405,1.87
338.56,-0.38,1.885
338.56,-0.37,1.86
338.56,-0.35,1.835
338.56,-0.345,1.79
338.57,-0.34,1.765
338.57,-0.34,1.745
338.57,-0.32,1.735
338.57,-0.325,1.69
338.58,-0.315,1.64
338.58,-0.32,1.585
338.58,-0.315,1.535
338.59,-0.295,1.495
338.59,-0.29,1.455
338.59,-0.265,1.395
338.59,-0.245,1.315
338.6,-0.245,1.255
338.6,-0.26,1.17
338.6,-0.255,1.12
338.61,-0.23,1.065
338.61,-0.215,1.005
338.61,-0.215,0.92
338.61,-0.22,0.86
338.62,-0.235,0.8
338.62,-0.23,0.755
338.62,-0.22,0.69
338.62,-0.215,0.63
338.63,-0.235,0.575
338.63,-0.25,0.51
338.63,-0.265,0.46
338.64,-0.265,0.42
338.64,-0.24,0.405
338.64,-0.235,0.36
338.64,-0.25,0.3
338.65,-0.245,0.265
338.65,-0.26,0.24
338.65,-0.26,0.21
338.66,-0.27,0.185
338.66,-0.27,0.155
338.66,-0.28,0.14
338.66,-0.29,0.095
338.67,-0.305,0.075
338.67,-0.3,0.07
338.67,-0.295,0.065
338.67,-0.285,0.04
338.68,-0.275,0.01
338.68,-0.275,0
338.68,-0.29,-0.02
338.69,-0.27,-0.015
338.69,-0.265,-0.025
338.69,-0.27,-0.02
338.69,-0.275,-0.025
338.7,-0.28,-0.045
338.7,-0.295,-0.045
338.7,-0.285,-0.055
338.71,-0.28,-0.04
338.71,-0.275,-0.035
338.71,-0.265,-0.04
338.71,-0.285,-0.055
338.72,-0.29,-0.065
338.72,-0.285,-0.065
338.72,-0.28,-0.05
338.72,-0.27,-0.055
338.73,-0.275,-0.05
338.73,-0.28,-0.065
338.73,-0.305,-0.06
338.74,-0.31,-0.055
338.74,-0.3,-0.035
338.74,-0.29,-0.04
338.74,-0.29,-0.05
338.75,-0.29,-0.045
338.75,-0.3,-0.055
338.75,-0.29,-0.045
338.76,-0.29,-0.035
338.76,-0.275,-0.035
338.76,-0.28,-0.035
338.76,-0.27,-0.045
338.77,-0.285,-0.06
338.77,-0.275,-0.055
338.77,-0.285,-0.04
338.77,-0.275,-0.03
338.78,-0.305,-0.045
338.78,-0.315,-0.055
338.78,-0.315,-0.05
338.79,-0.31,-0.05
338.79,-0.3,-0.04
338.79,-0.3,-0.04
338.79,-0.3,-0.05
338.8,-0.31,-0.06
338.8,-0.32,-0.065
338.8,-0.31,-0.06
338.81,-0.29,-0.055
338.81,-0.275,-0.055
338.81,-0.275,-0.065
338.81,-0.275,-0.08
338.82,-0.295,-0.09
338.82,-0.305,-0.08
338.82,-0.3,-0.08
338.82,-0.3,-0.085
338.83,-0.3,-0.1
338.83,-0.31,-0.115
338.83,-0.32,-0.105
338.84,-0.32,-0.105
338.84,-0.3,-0.105
338.84,-0.31,-0.1
338.84,-0.31,-0.13
338.85,-0.305,-0.12
338.85,-0.315,-0.135
338.85,-0.31,-0.13
338.86,-0.315,-0.125
338.86,-0.315,-0.14
338.86,-0.325,-0.135
338.86,-0.345,-0.15
338.87,-0.35,-0.155
338.87,-0.34,-0.14
338.87,-0.32,-0.135
338.88,-0.32,-0.145
338.88,-0.315,-0.16
338.88,-0.32,-0.16
338.88,-0.335,-0.185
338.89,-0.33,-0.17
338.89,-0.33,-0.16
338.89,-0.31,-0.16
338.89,-0.32,-0.17
338.9,-0.33,-0.185
338.9,-0.34,-0.185
338.9,-0.34,-0.17
338.91,-0.335,-0.165
338.91,-0.325,-0.175
338.91,-0.315,-0.19
338.91,-0.31,-0.19
338.92,-0.31,-0.205
338.92,-0.31,-0.205
338.92,-0.295,-0.19
338.92,-0.295,-0.195
338.93,-0.31,-0.18
338.93,-0.315,-0.2
338.93,-0.325,-0.2
338.94,-0.31,-0.185
338.94,-0.31,-0.185
338.94,-0.31,-0.19
338.94,-0.305,-0.195
338.95,-0.315,-0.205
338.95,-0.325,-0.2
338.95,-0.325,-0.2
338.96,-0.33,-0.19
338.96,-0.32,-0.195
338.96,-0.325,-0.2
338.96,-0.34,-0.21
338.97,-0.345,-0.22
338.97,-0.33,-0.2
338.97,-0.325,-0.205
338.97,-0.32,-0.205
338.98,-0.34,-0.215
338.98,-0.36,-0.225
338.98,-0.355,-0.225
338.99,-0.33,-0.22
338.99,-0.305,-0.205
338.99,-0.29,-0.215
338.99,-0.31,-0.215
339,-0.315,-0.215
339,-0.335,-0.21
339,-0.33,-0.205
339.01,-0.32,-0.205
339.01,-0.32,-0.205
339.01,-0.31,-0.22
339.01,-0.31,-0.23
339.02,-0.32,-0.235
339.02,-0.305,-0.22
339.02,-0.295,-0.205
339.02,-0.29,-0.215
339.03,-0.305,-0.215
339.03,-0.32,-0.23
339.03,-0.34,-0.225
339.04,-0.33,-0.225
339.04,-0.345,-0.22
339.04,-0.325,-0.22
339.04,-0.315,-0.21
339.05,-0.32,-0.235
339.05,-0.335,-0.225
339.05,-0.32,-0.205
339.06,-0.295,-0.2
339.06,-0.29,-0.205
339.06,-0.285,-0.2
339.06,-0.275,-0.195
339.07,-0.28,-0.18
339.07,-0.285,-0.145
339.07,-0.275,-0.065
339.07,-0.255,0.15
339.08,-0.245,0.495
339.08,-0.205,0.81
339.08,-0.155,0.825
339.09,-0.065,0.6
339.09,0.115,0.41
339.09,0.41,0.295
339.09,0.72,0.235
339.1,0.825,0.195
339.1,0.63,0.14
339.1,0.32,0.11
339.11,0.15,0.09
339.11,0.1,0.035
339.11,0.115,-0.025
339.11,0.125,-0.14
339.12,0.15,-0.28
339.12,0.175,-0.43
339.12,0.2,-0.61
339.12,0.195,-0.835
339.13,0.19,-1.085
339.13,0.175,-1.31
339.13,0.165,-1.575
339.14,0.175,-1.825
339.14,0.165,-2.03
339.14,0.17,-2.185
339.14,0.145,-2.37
339.15,0.155,-2.5
339.15,0.16,-2.61
339.15,0.16,-2.69
339.16,0.165,-2.77
339.16,0.155,-2.865
339.16,0.125,-2.96
339.16,0.06,-3.015
339.17,-0.025,-3.055
339.17,-0.115,-3.07
339.17,-0.17,-3.08
339.17,-0.21,-3.1
339.18,-0.26,-3.115
339.18,-0.335,-3.135
339.18,-0.435,-3.14
339.19,-0.51,-3.125
339.19,-0.545,-3.12
339.19,-0.54,-3.12
339.19,-0.505,-3.115
339.2,-0.49,-3.11
339.2,-0.495,-3.09
339.2,-0.505,-3.06
339.21,-0.51,-3
339.21,-0.525,-2.94
339.21,-0.525,-2.84
339.21,-0.51,-2.71
339.22,-0.495,-2.565
339.22,-0.48,-2.385
339.22,-0.455,-2.215
339.22,-0.425,-2.005
339.23,-0.415,-1.755
339.23,-0.415,-1.52
339.23,-0.425,-1.295
339.24,-0.41,-1.065
339.24,-0.375,-0.85
339.24,-0.35,-0.655
339.24,-0.35,-0.475
339.25,-0.36,-0.315
339.25,-0.37,-0.16
339.25,-0.36,-0.015
339.26,-0.355,0.135
339.26,-0.345,0.27
339.26,-0.35,0.39
339.26,-0.34,0.485
339.27,-0.34,0.55
339.27,-0.345,0.61
339.27,-0.34,0.65
339.27,-0.345,0.67
339.28,-0.33,0.715
339.28,-0.355,0.73
339.28,-0.355,0.76
339.29,-0.355,0.78
339.29,-0.355,0.83
339.29,-0.34,0.865
339.29,-0.355,0.855
339.3,-0.365,0.88
339.3,-0.385,0.895
339.3,-0.365,0.935
339.31,-0.355,0.965
339.31,-0.36,0.96
339.31,-0.37,0.985
339.31,-0.395,1.005
339.32,-0.39,1.02
339.32,-0.375,1.055
339.32,-0.345,1.09
339.32,-0.335,1.11
339.33,-0.35,1.12
339.33,-0.36,1.14
339.33,-0.38,1.165
339.34,-0.38,1.205
339.34,-0.38,1.25
339.34,-0.375,1.265
339.34,-0.38,1.285
339.35,-0.375,1.315
339.35,-0.39,1.335
339.35,-0.385,1.36
339.36,-0.37,1.41
339.36,-0.37,1.44
339.36,-0.375,1.47
339.36,-0.375,1.505
339.37,-0.38,1.515
339.37,-0.375,1.57
339.37,-0.35,1.585
339.38,-0.34,1.625
339.38,-0.335,1.645
339.38,-0.335,1.655
339.38,-0.33,1.67
339.39,-0.32,1.69
339.39,-0.31,1.72
339.39,-0.285,1.725
339.39,-0.295,1.72
339.4,-0.28,1.72
339.4,-0.28,1.725
339.4,-0.255,1.72
339.41,-0.245,1.735
339.41,-0.225,1.705
339.41,-0.22,1.69
339.41,-0.215,1.66
339.42,-0.22,1.63
339.42,-0.2,1.61
339.42,-0.175,1.575
339.42,-0.16,1.54
339.43,-0.145,1.48
339.43,-0.14,1.43
339.43,-0.14,1.365
339.44,-0.14,1.32
339.44,-0.125,1.26
339.44,-0.105,1.19
339.44,-0.1,1.11
339.45,-0.1,1.05
339.45,-0.095,0.975
339.45,-0.095,0.915
339.46,-0.095,0.87
339.46,-0.09,0.8
339.46,-0.075,0.74
339.46,-0.08,0.67
339.47,-0.105,0.615
339.47,-0.105,0.575
339.47,-0.1,0.525
339.47,-0.1,0.48
339.48,-0.11,0.43
339.48,-0.135,0.36
339.48,-0.14,0.33
339.49,-0.14,0.305
339.49,-0.135,0.285
339.49,-0.13,0.245
339.49,-0.14,0.205
339.5,-0.155,0.175
339.5,-0.175,0.16
339.5,-0.17,0.135
339.51,-0.165,0.125
339.51,-0.16,0.095
339.51,-0.17,0.08
339.51,-0.185,0.055
339.52,-0.2,0.055
339.52,-0.2,0.045
339.52,-0.195,0.045
339.52,-0.2,0.025
339.53,-0.21,0.025
339.53,-0.21,0.01
339.53,-0.22,0.005
339.54,-0.22,0.005
339.54,-0.21,0.02
339.54,-0.225,0.005
339.54,-0.225,-0.005
339.55,-0.24,-0.005
339.55,-0.24,-0.01
339.55,-0.24,-0.01
339.56,-0.23,0.01
339.56,-0.23,0.005
339.56,-0.235,0
339.56,-0.235,-0.015
339.57,-0.24,-0.02
339.57,-0.235,-0.01
339.57,-0.24,0.005
339.57,-0.23,0.005
339.58,-0.235,-0.015
339.58,-0.26,0
339.58,-0.26,-0.01
339.59,-0.26,0
339.59,-0.25,0.005
339.59,-0.235,-0.01
339.59,-0.245,-0.01
339.6,-0.25,-0.01
339.6,-0.26,-0.02
339.6,-0.255,-0.01
339.61,-0.235,0
339.61,-0.245,0
339.61,-0.25,-0.015
339.61,-0.265,-0.015
339.62,-0.27,-0.025
339.62,-0.265,-0.025
339.62,-0.255,-0.02
339.62,-0.26,-0.015
339.63,-0.265,-0.03
339.63,-0.275,-0.025
339.63,-0.28,-0.035
339.64,-0.27,-0.03
339.64,-0.27,-0.025
339.64,-0.275,-0.04
339.64,-0.265,-0.04
339.65,-0.27,-0.06
339.65,-0.29,-0.065
339.65,-0.28,-0.06
339.66,-0.275,-0.045
339.66,-0.27,-0.055
339.66,-0.28,-0.08
339.66,-0.285,-0.09
339.67,-0.3,-0.1
339.67,-0.3,-0.085
339.67,-0.295,-0.07
339.67,-0.29,-0.085
339.68,-0.285,-0.08
339.68,-0.3,-0.095
339.68,-0.31,-0.115
339.69,-0.315,-0.11
339.69,-0.305,-0.11
339.69,-0.31,-0.11
339.69,-0.305,-0.12
339.7,-0.31,-0.13
339.7,-0.315,-0.14
339.7,-0.31,-0.14
339.71,-0.31,-0.125
339.71,-0.305,-0.135
339.71,-0.31,-0.14
339.71,-0.315,-0.155
339.72,-0.33,-0.155
339.72,-0.33,-0.16
339.72,-0.325,-0.135
339.72,-0.305,-0.155
339.73,-0.325,-0.17
339.73,-0.335,-0.17
339.73,-0.345,-0.17
339.74,-0.335,-0.17
339.74,-0.335,-0.16
339.74,-0.325,-0.165
339.74,-0.33,-0.185
339.75,-0.34,-0.19
339.75,-0.34,-0.195
339.75,-0.34,-0.175
339.76,-0.34,-0.17
339.76,-0.335,-0.175
339.76,-0.34,-0.19
339.76,-0.335,-0.195
339.77,-0.35,-0.2
339.77,-0.35,-0.19
339.77,-0.345,-0.19
339.77,-0.33,-0.185
339.78,-0.34,-0.205
339.78,-0.34,-0.2
339.78,-0.355,-0.2
339.79,-0.345,-0.185
339.79,-0.335,-0.18
339.79,-0.33,-0.185
339.79,-0.34,-0.195
339.8,-0.36,-0.21
339.8,-0.365,-0.215
339.8,-0.35,-0.195
339.81,-0.34,-0.195
339.81,-0.34,-0.185
339.81,-0.345,-0.2
339.81,-0.36,-0.21
339.82,-0.36,-0.215
339.82,-0.355,-0.2
339.82,-0.34,-0.19
339.82,-0.34,-0.205
339.83,-0.34,-0.2
339.83,-0.355,-0.215
339.83,-0.355,-0.215
339.84,-0.345,-0.205
339.84,-0.34,-0.2
339.84,-0.335,-0.2
339.84,-0.335,-0.215
339.85,-0.345,-0.225
339.85,-0.355,-0.22
339.85,-0.35,-0.21
339.86,-0.34,-0.205
339.86,-0.325,-0.215
339.86,-0.33,-0.22
339.86,-0.35,-0.22
339.87,-0.355,-0.225
339.87,-0.355,-0.21
339.87,-0.35,-0.205
339.88,-0.34,-0.21
339.88,-0.35,-0.22
339.88,-0.345,-0.23
339.88,-0.355,-0.22
339.89,-0.345,-0.215
339.89,-0.335,-0.21
339.89,-0.335,-0.21
339.89,-0.325,-0.21
339.9,-0.335,-0.225
339.9,-0.33,-0.22
339.9,-0.34,-0.205
339.91,-0.335,-0.2
339.91,-0.325,-0.2
339.91,-0.325,-0.19
339.91,-0.31,-0.17
339.92,-0.325,-0.125
339.92,-0.3,0.005
339.92,-0.285,0.31
339.92,-0.24,0.68
339.93,-0.205,0.83
339.93,-0.13,0.64
339.93,0.02,0.39
339.94,0.38,0.265
339.94,0.755,0.225
339.94,0.88,0.195
339.94,0.66,0.145
339.95,0.325,0.105
339.95,0.14,0.08
339.95,0.105,0.035
339.96,0.125,-0.025
339.96,0.145,-0.15
339.96,0.16,-0.31
339.96,0.165,-0.51
339.97,0.16,-0.74
339.97,0.175,-0.965
339.97,0.195,-1.21
339.97,0.215,-1.485
339.98,0.21,-1.75
339.98,0.2,-1.97
339.98,0.185,-2.16
339.99,0.18,-2.31
339.99,0.2,-2.44
339.99,0.21,-2.55
339.99,0.2,-2.63
340,0.155,-2.725
340,0.14,-2.85
340,0.125,-2.925
340.01,0.095,-2.985
340.01,0.05,-3.025
340.01,-0.025,-3.05
340.01,-0.09,-3.085
340.02,-0.14,-3.105
340.02,-0.21,-3.12
340.02,-0.265,-3.105
340.02,-0.355,-3.12
340.03,-0.425,-3.125
340.03,-0.445,-3.135
340.03,-0.45,-3.135
340.04,-0.41,-3.115
340.04,-0.39,-3.095
340.04,-0.395,-3.09
340.04,-0.405,-3.055
340.05,-0.445,-3.02
340.05,-0.46,-2.93
340.05,-0.475,-2.8
340.06,-0.47,-2.67
340.06,-0.46,-2.53
340.06,-0.45,-2.375
340.06,-0.45,-2.17
340.07,-0.435,-1.93
340.07,-0.425,-1.67
340.07,-0.415,-1.445
340.07,-0.415,-1.225
340.08,-0.415,-0.995
340.08,-0.42,-0.78
340.08,-0.43,-0.575
340.09,-0.43,-0.365
340.09,-0.425,-0.2
340.09,-0.425,-0.045
340.09,-0.435,0.07
340.1,-0.435,0.21
340.1,-0.43,0.345
340.1,-0.42,0.465
340.11,-0.41,0.55
340.11,-0.38,0.605
340.11,-0.385,0.63
340.11,-0.395,0.655
340.12,-0.4,0.695
340.12,-0.395,0.72
340.12,-0.38,0.77
340.12,-0.37,0.785
340.13,-0.375,0.795
340.13,-0.38,0.815
340.13,-0.395,0.845
340.14,-0.39,0.885
340.14,-0.38,0.945
340.14,-0.375,0.975
340.14,-0.39,1
340.15,-0.405,1.01
340.15,-0.435,1.03
340.15,-0.44,1.06
340.16,-0.435,1.1
340.16,-0.435,1.12
340.16,-0.435,1.13
340.16,-0.455,1.16
340.17,-0.46,1.19
340.17,-0.455,1.23
340.17,-0.44,1.27
340.17,-0.45,1.295
340.18,-0.46,1.31
340.18,-0.47,1.33
340.18,-0.485,1.36
340.19,-0.475,1.39
340.19,-0.465,1.425
340.19,-0.465,1.46
340.19,-0.475,1.47
340.2,-0.49,1.48
340.2,-0.495,1.51
340.2,-0.485,1.55
340.21,-0.475,1.59
340.21,-0.47,1.615
340.21,-0.48,1.635
340.21,-0.485,1.645
340.22,-0.475,1.665
340.22,-0.48,1.69
340.22,-0.475,1.725
340.22,-0.45,1.75
340.23,-0.45,1.735
340.23,-0.44,1.75
340.23,-0.445,1.76
340.24,-0.435,1.78
340.24,-0.41,1.775
340.24,-0.4,1.77
340.24,-0.385,1.75
340.25,-0.385,1.745
340.25,-0.385,1.73
340.25,-0.355,1.725
340.26,-0.345,1.705
340.26,-0.32,1.67
340.26,-0.315,1.625
340.26,-0.315,1.59
340.27,-0.315,1.56
340.27,-0.285,1.515
340.27,-0.265,1.48
340.27,-0.265,1.425
340.28,-0.25,1.365
340.28,-0.25,1.285
340.28,-0.25,1.225
340.29,-0.23,1.17
340.29,-0.21,1.125
340.29,-0.2,1.05
340.29,-0.19,0.975
340.3,-0.19,0.92
340.3,-0.2,0.86
340.3,-0.18,0.815
340.31,-0.175,0.765
340.31,-0.165,0.71
340.31,-0.175,0.645
340.31,-0.19,0.58
340.32,-0.18,0.53
340.32,-0.18,0.515
340.32,-0.17,0.46
340.32,-0.165,0.425
340.33,-0.17,0.365
340.33,-0.19,0.335
340.33,-0.2,0.29
340.34,-0.195,0.265
340.34,-0.19,0.25
340.34,-0.185,0.21
340.34,-0.19,0.175
340.35,-0.2,0.14
340.35,-0.21,0.125
340.35,-0.21,0.125
340.36,-0.205,0.095
340.36,-0.205,0.08
340.36,-0.22,0.06
340.36,-0.23,0.055
340.37,-0.235,0.02
340.37,-0.24,0.03
340.37,-0.23,0.03
340.38,-0.23,0
340.38,-0.23,-0.005
340.38,-0.25,-0.02
340.38,-0.26,-0.02
340.39,-0.25,-0.025
340.39,-0.245,-0.01
340.39,-0.24,-0.02
340.39,-0.245,-0.02
340.4,-0.26,-0.035
340.4,-0.265,-0.03
340.4,-0.255,-0.03
340.41,-0.245,-0.015
340.41,-0.255,-0.025
340.41,-0.255,-0.03
340.41,-0.27,-0.035
340.42,-0.275,-0.03
340.42,-0.27,-0.03
340.42,-0.255,-0.015
340.42,-0.245,-0.025
340.43,-0.24,-0.025
340.43,-0.255,-0.04
340.43,-0.26,-0.04
340.44,-0.26,-0.03
340.44,-0.25,-0.015
340.44,-0.255,-0.025
340.44,-0.25,-0.03
340.45,-0.26,-0.04
340.45,-0.275,-0.03
340.45,-0.265,-0.035
340.46,-0.265,-0.02
340.46,-0.25,-0.02
340.46,-0.26,-0.025
340.46,-0.255,-0.035
340.47,-0.27,-0.04
340.47,-0.265,-0.035
340.47,-0.265,-0.03
340.47,-0.26,-0.045
340.48,-0.265,-0.05
340.48,-0.275,-0.055
340.48,-0.28,-0.07
340.49,-0.285,-0.06
340.49,-0.28,-0.05
340.49,-0.27,-0.06
340.49,-0.275,-0.07
340.5,-0.285,-0.07
340.5,-0.285,-0.075
340.5,-0.275,-0.07
340.51,-0.28,-0.07
340.51,-0.275,-0.08
340.51,-0.285,-0.09
340.51,-0.29,-0.1
340.52,-0.29,-0.11
340.52,-0.295,-0.105
340.52,-0.29,-0.105
340.52,-0.28,-0.11
340.53,-0.295,-0.125
340.53,-0.295,-0.13
340.53,-0.305,-0.125
340.54,-0.28,-0.13
340.54,-0.295,-0.125
340.54,-0.285,-0.145
340.54,-0.29,-0.145
340.55,-0.295,-0.16
340.55,-0.305,-0.165
340.55,-0.29,-0.17
340.56,-0.295,-0.155
340.56,-0.295,-0.165
340.56,-0.305,-0.17
340.56,-0.305,-0.18
340.57,-0.315,-0.18
340.57,-0.31,-0.18
340.57,-0.295,-0.175
340.57,-0.295,-0.17
340.58,-0.305,-0.18
340.58,-0.31,-0.2
340.58,-0.32,-0.2
340.59,-0.315,-0.185
340.59,-0.29,-0.185
340.59,-0.295,-0.185
340.59,-0.3,-0.2
340.6,-0.3,-0.21
340.6,-0.32,-0.22
340.6,-0.315,-0.195
340.61,-0.305,-0.185
340.61,-0.3,-0.215
340.61,-0.3,-0.21
340.61,-0.305,-0.215
340.62,-0.315,-0.215
340.62,-0.305,-0.22
340.62,-0.3,-0.2
340.62,-0.295,-0.225
340.63,-0.3,-0.215
340.63,-0.31,-0.22
340.63,-0.325,-0.235
340.64,-0.31,-0.21
340.64,-0.29,-0.21
340.64,-0.305,-0.225
340.64,-0.305,-0.225
340.65,-0.33,-0.24
340.65,-0.32,-0.225
340.65,-0.305,-0.225
340.66,-0.305,-0.215
340.66,-0.3,-0.22
340.66,-0.295,-0.225
340.66,-0.31,-0.235
340.67,-0.315,-0.235
340.67,-0.31,-0.225
340.67,-0.3,-0.225
340.67,-0.3,-0.23
340.68,-0.3,-0.235
340.68,-0.305,-0.235
340.68,-0.33,-0.255
340.69,-0.315,-0.24
340.69,-0.31,-0.225
340.69,-0.31,-0.235
340.69,-0.31,-0.235
340.7,-0.325,-0.245
340.7,-0.325,-0.255
340.7,-0.32,-0.245
340.71,-0.305,-0.22
340.71,-0.3,-0.235
340.71,-0.305,-0.245
340.71,-0.315,-0.25
340.72,-0.32,-0.24
340.72,-0.305,-0.245
340.72,-0.3,-0.24
340.72,-0.29,-0.24
340.73,-0.3,-0.235
340.73,-0.305,-0.245
340.73,-0.315,-0.25
340.74,-0.305,-0.23
340.74,-0.29,-0.22
340.74,-0.285,-0.24
340.74,-0.295,-0.245
340.75,-0.3,-0.24
340.75,-0.3,-0.235
340.75,-0.29,-0.225
340.76,-0.275,-0.215
340.76,-0.265,-0.205
340.76,-0.27,-0.19
340.76,-0.26,-0.16
340.77,-0.26,-0.015
340.77,-0.235,0.32
340.77,-0.19,0.69
340.77,-0.145,0.72
340.78,-0.04,0.46
340.78,0.21,0.23
340.78,0.605,0.145
340.79,0.845,0.125
340.79,0.68,0.075
340.79,0.34,0
340.79,0.125,-0.075
340.8,0.085,-0.175
340.8,0.1,-0.32
340.8,0.135,-0.475
340.81,0.15,-0.635
340.81,0.155,-0.85
340.81,0.15,-1.07
340.81,0.15,-1.275
340.82,0.16,-1.47
340.82,0.175,-1.62
340.82,0.175,-1.765
340.82,0.155,-1.935
340.83,0.15,-2.12
340.83,0.145,-2.325
340.83,0.155,-2.53
340.84,0.16,-2.65
340.84,0.135,-2.755
340.84,0.115,-2.83
340.84,0.065,-2.925
340.85,0,-3.01
340.85,-0.07,-3.06
340.85,-0.135,-3.075
340.86,-0.175,-3.075
340.86,-0.23,-3.11
340.86,-0.3,-3.115
340.86,-0.385,-3.125
340.87,-0.47,-3.145
340.87,-0.495,-3.125
340.87,-0.49,-3.115
340.88,-0.445,-3.105
340.88,-0.41,-3.1
340.88,-0.4,-3.085
340.88,-0.385,-3.055
340.89,-0.38,-2.98
340.89,-0.38,-2.87
340.89,-0.38,-2.76
340.89,-0.395,-2.63
340.9,-0.405,-2.47
340.9,-0.4,-2.26
340.9,-0.38,-2.005
340.91,-0.35,-1.75
340.91,-0.315,-1.51
340.91,-0.295,-1.245
340.91,-0.295,-1.015
340.92,-0.31,-0.805
340.92,-0.315,-0.595
340.92,-0.335,-0.395
340.92,-0.34,-0.22
340.93,-0.34,-0.08
340.93,-0.36,0.08
340.93,-0.365,0.215
340.94,-0.35,0.36
340.94,-0.34,0.465
340.94,-0.325,0.53
340.94,-0.32,0.58
340.95,-0.32,0.62
340.95,-0.33,0.665
340.95,-0.31,0.71
340.96,-0.315,0.75
340.96,-0.295,0.77
340.96,-0.295,0.805
340.96,-0.295,0.8
340.97,-0.31,0.845
340.97,-0.31,0.88
340.97,-0.305,0.91
340.97,-0.295,0.925
340.98,-0.295,0.94
340.98,-0.305,0.95
340.98,-0.31,0.99
340.99,-0.305,1.02
340.99,-0.305,1.045
340.99,-0.305,1.065
340.99,-0.3,1.095
341,-0.3,1.09
341,-0.31,1.13
341,-0.29,1.17
341.01,-0.29,1.2
341.01,-0.27,1.21
341.01,-0.285,1.235
341.01,-0.31,1.26
341.02,-0.305,1.285
341.02,-0.31,1.32
341.02,-0.3,1.355
341.02,-0.285,1.385
341.03,-0.28,1.405
341.03,-0.29,1.435
341.03,-0.29,1.47
341.04,-0.28,1.49
341.04,-0.26,1.54
341.04,-0.26,1.57
341.04,-0.25,1.57
341.05,-0.265,1.595
341.05,-0.27,1.61
341.05,-0.255,1.64
341.06,-0.245,1.67
341.06,-0.23,1.675
341.06,-0.235,1.685
341.06,-0.23,1.71
341.07,-0.23,1.715
341.07,-0.205,1.72
341.07,-0.195,1.73
341.07,-0.19,1.73
341.08,-0.2,1.715
341.08,-0.19,1.705
341.08,-0.185,1.7
341.09,-0.175,1.695
341.09,-0.145,1.68
341.09,-0.135,1.65
341.09,-0.135,1.615
341.1,-0.145,1.585
341.1,-0.15,1.54
341.1,-0.145,1.495
341.11,-0.135,1.465
341.11,-0.13,1.41
341.11,-0.14,1.345
341.11,-0.13,1.295
341.12,-0.135,1.235
341.12,-0.105,1.185
341.12,-0.11,1.13
341.12,-0.1,1.075
341.13,-0.09,1
341.13,-0.08,0.945
341.13,-0.09,0.87
341.14,-0.06,0.83
341.14,-0.05,0.765
341.14,-0.045,0.685
341.14,-0.04,0.61
341.15,-0.055,0.54
341.15,-0.055,0.48
341.15,-0.04,0.44
341.16,-0.035,0.4
341.16,-0.025,0.35
341.16,-0.03,0.3
341.16,-0.05,0.255
341.17,-0.06,0.205
341.17,-0.075,0.19
341.17,-0.06,0.17
341.17,-0.08,0.135
341.18,-0.105,0.11
341.18,-0.135,0.095
341.18,-0.155,0.06
341.19,-0.145,0.05
341.19,-0.15,0.035
341.19,-0.15,0.015
341.19,-0.155,0
341.2,-0.155,-0.035
341.2,-0.17,-0.045
341.2,-0.185,-0.04
341.21,-0.185,-0.045
341.21,-0.2,-0.055
341.21,-0.21,-0.07
341.21,-0.205,-0.08
341.22,-0.215,-0.09
341.22,-0.22,-0.09
341.22,-0.205,-0.085
341.22,-0.195,-0.09
341.23,-0.2,-0.1
341.23,-0.205,-0.1
341.23,-0.21,-0.11
341.24,-0.215,-0.105
341.24,-0.22,-0.095
341.24,-0.22,-0.1
341.24,-0.215,-0.1
341.25,-0.21,-0.12
341.25,-0.225,-0.12
341.25,-0.235,-0.105
341.26,-0.24,-0.085
341.26,-0.24,-0.095
341.26,-0.245,-0.09
341.26,-0.24,-0.11
341.27,-0.245,-0.1
341.27,-0.24,-0.09
341.27,-0.235,-0.085
341.27,-0.225,-0.095
341.28,-0.23,-0.09
341.28,-0.23,-0.095
341.28,-0.225,-0.105
341.29,-0.23,-0.08
341.29,-0.21,-0.08
341.29,-0.22,-0.09
341.29,-0.24,-0.08
341.3,-0.25,-0.11
341.3,-0.26,-0.105
341.3,-0.255,-0.095
341.31,-0.245,-0.095
341.31,-0.25,-0.09
341.31,-0.26,-0.11
341.31,-0.27,-0.125
341.32,-0.27,-0.115
341.32,-0.26,-0.115
341.32,-0.245,-0.115
341.32,-0.24,-0.11
341.33,-0.245,-0.14
341.33,-0.265,-0.14
341.33,-0.275,-0.14
341.34,-0.26,-0.145
341.34,-0.24,-0.13
341.34,-0.235,-0.15
341.34,-0.24,-0.165
341.35,-0.26,-0.185
341.35,-0.26,-0.175
341.35,-0.27,-0.175
341.36,-0.265,-0.16
341.36,-0.27,-0.175
341.36,-0.285,-0.18
341.36,-0.29,-0.19
341.37,-0.3,-0.2
341.37,-0.295,-0.19
341.37,-0.275,-0.19
341.38,-0.265,-0.205
341.38,-0.27,-0.21
341.38,-0.275,-0.225
341.38,-0.285,-0.22
341.39,-0.275,-0.22
341.39,-0.285,-0.195
341.39,-0.275,-0.205
341.39,-0.285,-0.22
341.4,-0.275,-0.23
341.4,-0.28,-0.24
341.4,-0.27,-0.23
341.41,-0.255,-0.215
341.41,-0.265,-0.22
341.41,-0.275,-0.23
341.41,-0.295,-0.245
341.42,-0.3,-0.24
341.42,-0.31,-0.235
341.42,-0.295,-0.22
341.42,-0.275,-0.23
341.43,-0.29,-0.25
341.43,-0.285,-0.25
341.43,-0.295,-0.245
341.44,-0.295,-0.23
341.44,-0.295,-0.22
341.44,-0.3,-0.23
341.44,-0.275,-0.245
341.45,-0.28,-0.255
341.45,-0.285,-0.26
341.45,-0.275,-0.26
341.46,-0.28,-0.23
341.46,-0.275,-0.23
341.46,-0.27,-0.255
341.46,-0.27,-0.26
341.47,-0.28,-0.27
341.47,-0.28,-0.26
341.47,-0.29,-0.245
341.47,-0.285,-0.24
341.48,-0.29,-0.265
341.48,-0.295,-0.265
341.48,-0.29,-0.27
341.49,-0.28,-0.25
341.49,-0.27,-0.24
341.49,-0.25,-0.23
341.49,-0.25,-0.25
341.5,-0.265,-0.265
341.5,-0.265,-0.265
341.5,-0.27,-0.245
341.51,-0.26,-0.245
341.51,-0.25,-0.24
341.51,-0.255,-0.255
341.51,-0.255,-0.27
341.52,-0.265,-0.27
341.52,-0.255,-0.26
341.52,-0.26,-0.26
341.52,-0.265,-0.25
341.53,-0.265,-0.265
341.53,-0.28,-0.27
341.53,-0.275,-0.275
341.54,-0.26,-0.255
341.54,-0.25,-0.245
341.54,-0.24,-0.26
341.54,-0.255,-0.265
341.55,-0.27,-0.28
341.55,-0.26,-0.28
341.55,-0.245,-0.26
341.56,-0.24,-0.255
341.56,-0.22,-0.26
341.56,-0.22,-0.275
341.56,-0.225,-0.265
341.57,-0.235,-0.275
341.57,-0.245,-0.26
341.57,-0.25,-0.25
341.57,-0.25,-0.255
341.58,-0.25,-0.26
341.58,-0.255,-0.26
341.58,-0.23,-0.255
341.59,-0.21,-0.24
341.59,-0.195,-0.215
341.59,-0.2,-0.185
341.59,-0.2,-0.1
341.6,-0.2,0.12
341.6,-0.17,0.545
341.6,-0.115,0.825
341.61,-0.065,0.735
341.61,0.045,0.44
341.61,0.29,0.24
341.61,0.66,0.175
341.62,0.85,0.155
341.62,0.7,0.125
341.62,0.415,0.1
341.62,0.215,0.035
341.63,0.17,-0.015
341.63,0.195,-0.105
341.63,0.21,-0.225
341.64,0.23,-0.38
341.64,0.245,-0.555
341.64,0.24,-0.81
341.64,0.255,-1.055
341.65,0.275,-1.275
341.65,0.275,-1.52
341.65,0.285,-1.765
341.66,0.275,-1.97
341.66,0.265,-2.15
341.66,0.26,-2.325
341.66,0.265,-2.465
341.67,0.255,-2.565
341.67,0.25,-2.645
341.67,0.23,-2.72
341.67,0.24,-2.83
341.68,0.235,-2.94
341.68,0.205,-3.005
341.68,0.135,-3.04
341.69,0.06,-3.04
341.69,-0.005,-3.055
341.69,-0.05,-3.095
341.69,-0.125,-3.115
341.7,-0.22,-3.125
341.7,-0.325,-3.135
341.7,-0.405,-3.125
341.71,-0.43,-3.12
341.71,-0.415,-3.11
341.71,-0.375,-3.11
341.71,-0.355,-3.115
341.72,-0.365,-3.085
341.72,-0.37,-3.04
341.72,-0.4,-2.985
341.72,-0.425,-2.905
341.73,-0.445,-2.805
341.73,-0.455,-2.685
341.73,-0.435,-2.55
341.74,-0.4,-2.38
341.74,-0.37,-2.2
341.74,-0.36,-1.995
341.74,-0.365,-1.785
341.75,-0.365,-1.585
341.75,-0.36,-1.365
341.75,-0.35,-1.16
341.76,-0.34,-0.95
341.76,-0.335,-0.725
341.76,-0.33,-0.535
341.76,-0.345,-0.36
341.77,-0.355,-0.2
341.77,-0.345,-0.045
341.77,-0.36,0.095
341.77,-0.35,0.22
341.78,-0.34,0.345
341.78,-0.34,0.44
341.78,-0.315,0.51
341.79,-0.31,0.565
341.79,-0.31,0.63
341.79,-0.305,0.655
341.79,-0.29,0.675
341.8,-0.29,0.705
341.8,-0.29,0.74
341.8,-0.285,0.78
341.81,-0.27,0.81
341.81,-0.275,0.835
341.81,-0.275,0.855
341.81,-0.275,0.87
341.82,-0.28,0.9
341.82,-0.285,0.925
341.82,-0.275,0.96
341.82,-0.27,0.98
341.83,-0.28,1.005
341.83,-0.285,1.025
341.83,-0.295,1.04
341.84,-0.285,1.085
341.84,-0.29,1.115
341.84,-0.27,1.14
341.84,-0.27,1.155
341.85,-0.28,1.185
341.85,-0.285,1.22
341.85,-0.28,1.25
341.86,-0.26,1.295
341.86,-0.265,1.335
341.86,-0.265,1.35
341.86,-0.275,1.375
341.87,-0.28,1.405
341.87,-0.27,1.445
341.87,-0.265,1.48
341.88,-0.26,1.51
341.88,-0.27,1.52
341.88,-0.27,1.545
341.88,-0.275,1.57
341.89,-0.265,1.595
341.89,-0.255,1.63
341.89,-0.245,1.66
341.89,-0.245,1.665
341.9,-0.235,1.685
341.9,-0.245,1.7
341.9,-0.225,1.725
341.91,-0.23,1.735
341.91,-0.205,1.745
341.91,-0.21,1.74
341.91,-0.205,1.74
341.92,-0.21,1.745
341.92,-0.185,1.74
341.92,-0.18,1.74
341.92,-0.17,1.725
341.93,-0.16,1.71
341.93,-0.16,1.67
341.93,-0.165,1.65
341.94,-0.145,1.62
341.94,-0.135,1.6
341.94,-0.135,1.545
341.94,-0.125,1.505
341.95,-0.12,1.45
341.95,-0.125,1.4
341.95,-0.11,1.355
341.96,-0.095,1.33
341.96,-0.095,1.265
341.96,-0.08,1.195
341.96,-0.08,1.13
341.97,-0.085,1.075
341.97,-0.08,1.025
341.97,-0.07,0.965
341.97,-0.075,0.9
341.98,-0.065,0.825
341.98,-0.075,0.755
341.98,-0.075,0.71
341.99,-0.075,0.66
341.99,-0.075,0.61
341.99,-0.07,0.55
341.99,-0.075,0.49
342,-0.075,0.43
342,-0.095,0.395
342,-0.09,0.37
342.01,-0.085,0.33
342.01,-0.085,0.29
342.01,-0.095,0.25
342.01,-0.105,0.195
342.02,-0.115,0.175
342.02,-0.125,0.17
342.02,-0.125,0.14
342.02,-0.12,0.115
342.03,-0.13,0.08
342.03,-0.14,0.055
342.03,-0.15,0.04
342.04,-0.15,0.03
342.04,-0.14,0.025
342.04,-0.14,0
342.04,-0.14,-0.015
342.05,-0.165,-0.04
342.05,-0.17,-0.035
342.05,-0.165,-0.035
342.06,-0.16,-0.035
342.06,-0.165,-0.06
342.06,-0.165,-0.07
342.06,-0.175,-0.085
342.07,-0.19,-0.08
342.07,-0.185,-0.07
342.07,-0.185,-0.08
342.07,-0.18,-0.075
342.08,-0.185,-0.08
342.08,-0.19,-0.085
342.08,-0.2,-0.095
342.09,-0.195,-0.08
342.09,-0.185,-0.08
342.09,-0.185,-0.07
342.09,-0.19,-0.08
342.1,-0.2,-0.105
342.1,-0.2,-0.09
342.1,-0.195,-0.085
342.11,-0.195,-0.08
342.11,-0.19,-0.075
342.11,-0.2,-0.095
342.11,-0.21,-0.085
342.12,-0.215,-0.085
342.12,-0.2,-0.08
342.12,-0.2,-0.08
342.12,-0.2,-0.075
342.13,-0.2,-0.07
342.13,-0.205,-0.095
342.13,-0.22,-0.08
342.14,-0.21,-0.085
342.14,-0.215,-0.07
342.14,-0.21,-0.085
342.14,-0.22,-0.095
342.15,-0.225,-0.1
342.15,-0.24,-0.095
342.15,-0.225,-0.085
342.16,-0.215,-0.09
342.16,-0.215,-0.09
342.16,-0.225,-0.1
342.16,-0.225,-0.1
342.17,-0.235,-0.11
342.17,-0.23,-0.095
342.17,-0.225,-0.1
342.17,-0.225,-0.1
342.18,-0.23,-0.105
342.18,-0.24,-0.13
342.18,-0.245,-0.105
342.19,-0.24,-0.1
342.19,-0.23,-0.09
342.19,-0.235,-0.09
342.19,-0.235,-0.095
342.2,-0.245,-0.11
342.2,-0.255,-0.105
342.2,-0.255,-0.09
342.21,-0.26,-0.095
342.21,-0.255,-0.09
342.21,-0.265,-0.105
342.21,-0.28,-0.13
342.22,-0.285,-0.125
342.22,-0.275,-0.12
342.22,-0.265,-0.11
342.22,-0.26,-0.12
342.23,-0.26,-0.12
342.23,-0.26,-0.15
342.23,-0.27,-0.135
342.24,-0.26,-0.14
342.24,-0.26,-0.14
342.24,-0.24,-0.15
342.24,-0.225,-0.175
342.25,-0.24,-0.205
342.25,-0.25,-0.205
342.25,-0.235,-0.205
342.26,-0.24,-0.215
342.26,-0.24,-0.22
342.26,-0.235,-0.225
342.26,-0.235,-0.255
342.27,-0.235,-0.245
342.27,-0.23,-0.245
342.27,-0.225,-0.25
342.27,-0.225,-0.255
342.28,-0.23,-0.265
342.28,-0.24,-0.265
342.28,-0.245,-0.25
342.29,-0.24,-0.23
342.29,-0.245,-0.235
342.29,-0.255,-0.235
342.29,-0.275,-0.26
342.3,-0.28,-0.26
342.3,-0.295,-0.26
342.3,-0.295,-0.25
342.31,-0.285,-0.25
342.31,-0.29,-0.245
342.31,-0.29,-0.25
342.31,-0.315,-0.27
342.32,-0.315,-0.27
342.32,-0.305,-0.255
342.32,-0.29,-0.255
342.32,-0.29,-0.255
342.33,-0.305,-0.255
342.33,-0.3,-0.265
342.33,-0.315,-0.26
342.34,-0.3,-0.255
342.34,-0.3,-0.26
342.34,-0.295,-0.255
342.34,-0.305,-0.265
342.35,-0.315,-0.28
342.35,-0.315,-0.27
342.35,-0.315,-0.265
342.36,-0.3,-0.245
342.36,-0.305,-0.265
342.36,-0.305,-0.27
342.36,-0.305,-0.265
342.37,-0.315,-0.27
342.37,-0.315,-0.27
342.37,-0.31,-0.265
342.38,-0.3,-0.265
342.38,-0.3,-0.265
342.38,-0.305,-0.275
342.38,-0.305,-0.265
342.39,-0.305,-0.255
342.39,-0.295,-0.26
342.39,-0.29,-0.265
342.39,-0.295,-0.27
342.4,-0.3,-0.275
342.4,-0.305,-0.265
342.4,-0.29,-0.255
342.41,-0.28,-0.245
342.41,-0.28,-0.245
342.41,-0.28,-0.25
342.41,-0.275,-0.26
342.42,-0.285,-0.24
342.42,-0.28,-0.205
342.42,-0.26,-0.175
342.42,-0.245,-0.045
342.43,-0.22,0.205
342.43,-0.215,0.61
342.43,-0.17,0.78
342.44,-0.115,0.615
342.44,0.035,0.345
342.44,0.345,0.2
342.44,0.68,0.145
342.45,0.75,0.13
342.45,0.495,0.1
342.45,0.205,0.07
342.46,0.095,0.05
342.46,0.105,-0.005
342.46,0.15,-0.09
342.46,0.165,-0.25
342.47,0.18,-0.445
342.47,0.21,-0.665
342.47,0.235,-0.915
342.47,0.25,-1.165
342.48,0.275,-1.45
342.48,0.275,-1.73
342.48,0.265,-1.975
342.49,0.28,-2.165
342.49,0.295,-2.305
342.49,0.315,-2.425
342.49,0.32,-2.51
342.5,0.3,-2.61
342.5,0.3,-2.695
342.5,0.295,-2.795
342.51,0.28,-2.87
342.51,0.235,-2.945
342.51,0.17,-2.975
342.51,0.11,-3.03
342.52,0.045,-3.04
342.52,0.01,-3.07
342.52,-0.055,-3.075
342.52,-0.16,-3.095
342.53,-0.25,-3.11
342.53,-0.315,-3.125
342.53,-0.31,-3.115
342.54,-0.27,-3.11
342.54,-0.24,-3.085
342.54,-0.24,-3.055
342.54,-0.275,-3.02
342.55,-0.305,-2.965
342.55,-0.325,-2.855
342.55,-0.345,-2.74
342.56,-0.375,-2.62
342.56,-0.41,-2.49
342.56,-0.41,-2.36
342.56,-0.405,-2.19
342.57,-0.405,-1.975
342.57,-0.4,-1.735
342.57,-0.4,-1.495
342.57,-0.41,-1.27
342.58,-0.405,-1.075
342.58,-0.405,-0.86
342.58,-0.4,-0.635
342.59,-0.385,-0.415
342.59,-0.385,-0.24
342.59,-0.41,-0.08
342.59,-0.42,0.065
342.6,-0.435,0.185
342.6,-0.44,0.33
342.6,-0.43,0.455
342.61,-0.405,0.545
342.61,-0.4,0.61
342.61,-0.4,0.66
342.61,-0.415,0.69
342.62,-0.41,0.745
342.62,-0.39,0.79
342.62,-0.385,0.84
342.62,-0.375,0.88
342.63,-0.39,0.92
342.63,-0.385,0.94
342.63,-0.385,0.975
342.64,-0.39,1.03
342.64,-0.37,1.07
342.64,-0.385,1.09
342.64,-0.375,1.125
342.65,-0.385,1.16
342.65,-0.39,1.195
342.65,-0.38,1.25
342.66,-0.37,1.295
342.66,-0.37,1.33
342.66,-0.37,1.36
342.66,-0.395,1.39
342.67,-0.395,1.435
342.67,-0.38,1.485
342.67,-0.38,1.525
342.67,-0.375,1.56
342.68,-0.375,1.585
342.68,-0.39,1.62
342.68,-0.39,1.665
342.69,-0.385,1.705
342.69,-0.385,1.74
342.69,-0.365,1.765
342.69,-0.37,1.79
342.7,-0.375,1.82
342.7,-0.365,1.84
342.7,-0.35,1.875
342.71,-0.335,1.895
342.71,-0.34,1.915
342.71,-0.335,1.92
342.71,-0.335,1.905
342.72,-0.325,1.92
342.72,-0.31,1.925
342.72,-0.285,1.92
342.72,-0.28,1.905
342.73,-0.265,1.875
342.73,-0.27,1.835
342.73,-0.27,1.825
342.74,-0.26,1.795
342.74,-0.235,1.77
342.74,-0.235,1.705
342.74,-0.235,1.67
342.75,-0.235,1.615
342.75,-0.225,1.55
342.75,-0.21,1.505
342.76,-0.2,1.45
342.76,-0.19,1.395
342.76,-0.19,1.32
342.76,-0.19,1.25
342.77,-0.185,1.19
342.77,-0.185,1.14
342.77,-0.16,1.075
342.77,-0.15,1.03
342.78,-0.165,0.96
342.78,-0.165,0.88
342.78,-0.17,0.83
342.79,-0.16,0.78
342.79,-0.15,0.72
342.79,-0.155,0.67
342.79,-0.16,0.605
342.8,-0.17,0.535
342.8,-0.17,0.5
342.8,-0.16,0.46
342.81,-0.16,0.425
342.81,-0.16,0.38
342.81,-0.17,0.33
342.81,-0.18,0.29
342.82,-0.185,0.26
342.82,-0.175,0.23
342.82,-0.175,0.21
342.82,-0.18,0.17
342.83,-0.195,0.14
342.83,-0.205,0.11
342.83,-0.205,0.1
342.84,-0.195,0.085
342.84,-0.19,0.07
342.84,-0.2,0.045
342.84,-0.205,0.025
342.85,-0.22,0.01
342.85,-0.23,-0.005
342.85,-0.235,0
342.86,-0.205,-0.01
342.86,-0.21,-0.04
342.86,-0.215,-0.045
342.86,-0.22,-0.055
342.87,-0.22,-0.06
342.87,-0.205,-0.06
342.87,-0.195,-0.055
342.88,-0.205,-0.06
342.88,-0.205,-0.07
342.88,-0.215,-0.075
342.88,-0.225,-0.075
342.89,-0.215,-0.065
342.89,-0.205,-0.055
342.89,-0.2,-0.065
342.89,-0.205,-0.075
342.9,-0.21,-0.09
342.9,-0.21,-0.075
342.9,-0.205,-0.065
342.91,-0.2,-0.06
342.91,-0.2,-0.07
342.91,-0.205,-0.09
342.91,-0.21,-0.09
342.92,-0.215,-0.085
342.92,-0.21,-0.06
342.92,-0.195,-0.055
342.92,-0.195,-0.06
342.93,-0.195,-0.06
342.93,-0.21,-0.08
342.93,-0.225,-0.065
342.94,-0.21,-0.06
342.94,-0.195,-0.045
342.94,-0.205,-0.045
342.94,-0.2,-0.05
342.95,-0.215,-0.065
342.95,-0.235,-0.065
342.95,-0.23,-0.055
342.96,-0.22,-0.055
342.96,-0.215,-0.05
342.96,-0.215,-0.06
342.96,-0.215,-0.08
342.97,-0.225,-0.065
342.97,-0.215,-0.065
342.97,-0.215,-0.06
342.97,-0.215,-0.07
342.98,-0.22,-0.075
342.98,-0.225,-0.085
342.98,-0.23,-0.08
342.99,-0.22,-0.08
342.99,-0.225,-0.085
342.99,-0.215,-0.095
342.99,-0.215,-0.105
343,-0.23,-0.1
343,-0.245,-0.11
343,-0.24,-0.115
343.01,-0.23,-0.105
343.01,-0.23,-0.125
343.01,-0.235,-0.125
343.01,-0.25,-0.135
343.02,-0.255,-0.135
343.02,-0.24,-0.125
343.02,-0.235,-0.135
343.02,-0.25,-0.135
343.03,-0.245,-0.145
343.03,-0.255,-0.16
343.03,-0.25,-0.17
343.04,-0.245,-0.155
343.04,-0.23,-0.155
343.04,-0.24,-0.165
343.04,-0.245,-0.17
343.05,-0.255,-0.18
343.05,-0.26,-0.18
343.05,-0.265,-0.175
343.06,-0.26,-0.17
343.06,-0.26,-0.17
343.06,-0.26,-0.185
343.06,-0.275,-0.19
343.07,-0.28,-0.19
343.07,-0.265,-0.185
343.07,-0.26,-0.18
343.07,-0.265,-0.19
343.08,-0.265,-0.195
343.08,-0.27,-0.2
343.08,-0.275,-0.215
343.09,-0.265,-0.195
343.09,-0.255,-0.2
343.09,-0.275,-0.2
343.09,-0.275,-0.205
343.1,-0.28,-0.215
343.1,-0.29,-0.21
343.1,-0.29,-0.195
343.11,-0.27,-0.185
343.11,-0.255,-0.195
343.11,-0.26,-0.2
343.11,-0.265,-0.215
343.12,-0.265,-0.21
343.12,-0.26,-0.175
343.12,-0.26,-0.165
343.12,-0.255,-0.165
343.13,-0.275,-0.17
343.13,-0.28,-0.185
343.13,-0.28,-0.165
343.14,-0.275,-0.16
343.14,-0.265,-0.15
343.14,-0.27,-0.17
343.14,-0.27,-0.175
343.15,-0.275,-0.17
343.15,-0.265,-0.175
343.15,-0.255,-0.17
343.16,-0.245,-0.175
343.16,-0.235,-0.185
343.16,-0.245,-0.205
343.16,-0.25,-0.215
343.17,-0.24,-0.22
343.17,-0.245,-0.215
343.17,-0.225,-0.22
343.17,-0.225,-0.22
343.18,-0.225,-0.255
343.18,-0.225,-0.27
343.18,-0.225,-0.265
343.19,-0.21,-0.275
343.19,-0.21,-0.28
343.19,-0.2,-0.275
343.19,-0.2,-0.285
343.2,-0.2,-0.305
343.2,-0.21,-0.29
343.2,-0.22,-0.26
343.21,-0.215,-0.235
343.21,-0.21,-0.215
343.21,-0.22,-0.205
343.21,-0.225,-0.18
343.22,-0.21,-0.01
343.22,-0.2,0.37
343.22,-0.155,0.76
343.22,-0.11,0.795
343.23,-0.015,0.505
343.23,0.215,0.255
343.23,0.605,0.165
343.24,0.825,0.155
343.24,0.645,0.125
343.24,0.34,0.075
343.24,0.16,0.025
343.25,0.125,-0.03
343.25,0.17,-0.135
343.25,0.215,-0.255
343.26,0.23,-0.44
343.26,0.24,-0.65
343.26,0.265,-0.91
343.26,0.27,-1.16
343.27,0.27,-1.41
343.27,0.27,-1.645
343.27,0.29,-1.875
343.27,0.29,-2.05
343.28,0.315,-2.185
343.28,0.335,-2.28
343.28,0.36,-2.365
343.29,0.395,-2.425
343.29,0.41,-2.525
343.29,0.41,-2.64
343.29,0.39,-2.76
343.3,0.385,-2.85
343.3,0.36,-2.9
343.3,0.33,-2.915
343.31,0.29,-2.945
343.31,0.255,-2.99
343.31,0.185,-3.03
343.31,0.09,-3.065
343.32,-0.03,-3.065
343.32,-0.11,-3.075
343.32,-0.16,-3.085
343.32,-0.175,-3.085
343.33,-0.15,-3.085
343.33,-0.155,-3.09
343.33,-0.165,-3.075
343.34,-0.175,-3.025
343.34,-0.205,-2.97
343.34,-0.26,-2.885
343.34,-0.3,-2.79
343.35,-0.37,-2.675
343.35,-0.385,-2.53
343.35,-0.39,-2.37
343.36,-0.365,-2.16
343.36,-0.355,-1.925
343.36,-0.345,-1.675
343.36,-0.36,-1.44
343.37,-0.36,-1.19
343.37,-0.345,-0.945
343.37,-0.335,-0.715
343.38,-0.33,-0.505
343.38,-0.345,-0.325
343.38,-0.385,-0.145
343.38,-0.395,0.015
343.39,-0.395,0.165
343.39,-0.375,0.3
343.39,-0.37,0.435
343.39,-0.36,0.52
343.4,-0.37,0.59
343.4,-0.36,0.65
343.4,-0.35,0.71
343.41,-0.33,0.745
343.41,-0.325,0.79
343.41,-0.34,0.83
343.41,-0.345,0.85
343.42,-0.335,0.895
343.42,-0.325,0.935
343.42,-0.305,0.975
343.42,-0.295,1.015
343.43,-0.295,1.05
343.43,-0.31,1.07
343.43,-0.31,1.115
343.44,-0.3,1.155
343.44,-0.285,1.2
343.44,-0.285,1.235
343.44,-0.285,1.26
343.45,-0.295,1.285
343.45,-0.29,1.33
343.45,-0.28,1.385
343.46,-0.275,1.415
343.46,-0.275,1.465
343.46,-0.275,1.485
343.46,-0.285,1.52
343.47,-0.29,1.565
343.47,-0.28,1.605
343.47,-0.26,1.655
343.47,-0.26,1.685
343.48,-0.265,1.725
343.48,-0.275,1.75
343.48,-0.28,1.77
343.49,-0.265,1.815
343.49,-0.255,1.85
343.49,-0.24,1.88
343.49,-0.245,1.89
343.5,-0.255,1.895
343.5,-0.24,1.905
343.5,-0.225,1.925
343.51,-0.205,1.935
343.51,-0.19,1.93
343.51,-0.19,1.91
343.51,-0.18,1.89
343.52,-0.18,1.88
343.52,-0.16,1.855
343.52,-0.15,1.84
343.52,-0.145,1.795
343.53,-0.155,1.745
343.53,-0.165,1.69
343.53,-0.16,1.63
343.54,-0.155,1.59
343.54,-0.135,1.53
343.54,-0.125,1.48
343.54,-0.115,1.405
343.55,-0.12,1.34
343.55,-0.125,1.26
343.55,-0.105,1.215
343.56,-0.085,1.16
343.56,-0.07,1.09
343.56,-0.065,1.01
343.56,-0.07,0.94
343.57,-0.07,0.88
343.57,-0.075,0.825
343.57,-0.07,0.775
343.57,-0.07,0.715
343.58,-0.085,0.655
343.58,-0.095,0.595
343.58,-0.105,0.54
343.59,-0.105,0.495
343.59,-0.11,0.455
343.59,-0.12,0.4
343.59,-0.125,0.355
343.6,-0.125,0.305
343.6,-0.13,0.28
343.6,-0.13,0.245
343.61,-0.135,0.225
343.61,-0.145,0.19
343.61,-0.14,0.155
343.61,-0.165,0.125
343.62,-0.17,0.095
343.62,-0.155,0.08
343.62,-0.14,0.065
343.62,-0.145,0.05
343.63,-0.165,0.03
343.63,-0.18,0
343.63,-0.2,-0.005
343.64,-0.2,0
343.64,-0.19,0
343.64,-0.175,-0.02
343.64,-0.17,-0.035
343.65,-0.185,-0.055
343.65,-0.18,-0.055
343.65,-0.17,-0.06
343.66,-0.165,-0.055
343.66,-0.17,-0.06
343.66,-0.19,-0.085
343.66,-0.19,-0.09
343.67,-0.205,-0.085
343.67,-0.19,-0.08
343.67,-0.185,-0.08
343.67,-0.185,-0.085
343.68,-0.19,-0.105
343.68,-0.2,-0.105
343.68,-0.195,-0.105
343.69,-0.195,-0.09
343.69,-0.185,-0.095
343.69,-0.185,-0.085
343.69,-0.195,-0.1
343.7,-0.205,-0.1
343.7,-0.2,-0.1
343.7,-0.195,-0.08
343.71,-0.195,-0.08
343.71,-0.205,-0.085
343.71,-0.21,-0.095
343.71,-0.215,-0.09
343.72,-0.2,-0.1
343.72,-0.21,-0.075
343.72,-0.205,-0.06
343.72,-0.2,-0.075
343.73,-0.195,-0.07
343.73,-0.185,-0.085
343.73,-0.18,-0.09
343.74,-0.175,-0.08
343.74,-0.175,-0.07
343.74,-0.19,-0.07
343.74,-0.205,-0.07
343.75,-0.225,-0.085
343.75,-0.22,-0.085
343.75,-0.205,-0.08
343.76,-0.19,-0.06
343.76,-0.195,-0.065
343.76,-0.185,-0.075
343.76,-0.195,-0.085
343.77,-0.2,-0.085
343.77,-0.205,-0.075
343.77,-0.215,-0.07
343.77,-0.205,-0.09
343.78,-0.21,-0.1
343.78,-0.225,-0.11
343.78,-0.22,-0.11
343.79,-0.21,-0.09
343.79,-0.22,-0.09
343.79,-0.24,-0.1
343.79,-0.245,-0.115
343.8,-0.25,-0.115
343.8,-0.235,-0.12
343.8,-0.215,-0.115
343.81,-0.215,-0.11
343.81,-0.22,-0.12
343.81,-0.215,-0.14
343.81,-0.23,-0.15
343.82,-0.23,-0.14
343.82,-0.22,-0.135
343.82,-0.21,-0.14
343.82,-0.195,-0.14
343.83,-0.22,-0.15
343.83,-0.225,-0.17
343.83,-0.225,-0.165
343.84,-0.22,-0.165
343.84,-0.22,-0.16
343.84,-0.225,-0.16
343.84,-0.225,-0.175
343.85,-0.245,-0.185
343.85,-0.255,-0.18
343.85,-0.26,-0.175
343.86,-0.26,-0.16
343.86,-0.25,-0.175
343.86,-0.25,-0.19
343.86,-0.265,-0.195
343.87,-0.255,-0.19
343.87,-0.23,-0.195
343.87,-0.205,-0.195
343.88,-0.185,-0.2
343.88,-0.185,-0.2
343.88,-0.2,-0.205
343.88,-0.22,-0.2
343.89,-0.21,-0.19
343.89,-0.21,-0.2
343.89,-0.21,-0.205
343.89,-0.225,-0.21
343.9,-0.23,-0.21
343.9,-0.225,-0.215
343.9,-0.225,-0.205
343.91,-0.23,-0.195
343.91,-0.23,-0.19
343.91,-0.23,-0.205
343.91,-0.22,-0.22
343.92,-0.225,-0.21
343.92,-0.205,-0.21
343.92,-0.22,-0.21
343.92,-0.215,-0.21
343.93,-0.235,-0.225
343.93,-0.24,-0.235
343.93,-0.235,-0.22
343.94,-0.215,-0.21
343.94,-0.22,-0.21
343.94,-0.21,-0.21
343.94,-0.215,-0.225
343.95,-0.22,-0.235
343.95,-0.225,-0.23
343.95,-0.22,-0.22
343.96,-0.2,-0.21
343.96,-0.185,-0.215
343.96,-0.185,-0.23
343.96,-0.19,-0.23
343.97,-0.2,-0.225
343.97,-0.195,-0.225
343.97,-0.185,-0.21
343.97,-0.2,-0.225
343.98,-0.21,-0.235
343.98,-0.225,-0.23
343.98,-0.22,-0.23
343.99,-0.205,-0.21
343.99,-0.2,-0.21
343.99,-0.19,-0.205
343.99,-0.195,-0.2
344,-0.2,-0.195
344,-0.195,-0.18
344,-0.19,-0.16
344.01,-0.195,-0.135
344.01,-0.19,-0.105
344.01,-0.18,-0.045
344.01,-0.18,0.16
344.02,-0.16,0.585
344.02,-0.13,0.88
344.02,-0.07,0.785
344.02,0.035,0.485
344.03,0.34,0.3
344.03,0.745,0.245
344.03,0.895,0.23
344.04,0.695,0.205
344.04,0.385,0.165
344.04,0.22,0.11
344.04,0.215,0.045
344.05,0.24,-0.065
344.05,0.265,-0.17
344.05,0.28,-0.31
344.06,0.29,-0.48
344.06,0.31,-0.69
344.06,0.305,-0.92
344.06,0.31,-1.155
344.07,0.315,-1.385
344.07,0.33,-1.625
344.07,0.325,-1.85
344.07,0.3,-2.05
344.08,0.285,-2.215
344.08,0.295,-2.375
344.08,0.29,-2.465
344.09,0.29,-2.55
344.09,0.275,-2.64
344.09,0.26,-2.74
344.09,0.245,-2.85
344.1,0.185,-2.94
344.1,0.115,-2.98
344.1,0.055,-3
344.11,-0.01,-3.015
344.11,-0.065,-3.045
344.11,-0.125,-3.075
344.11,-0.2,-3.09
344.12,-0.305,-3.09
344.12,-0.39,-3.095
344.12,-0.435,-3.09
344.12,-0.45,-3.08
344.13,-0.425,-3.095
344.13,-0.38,-3.08
344.13,-0.365,-3.06
344.14,-0.35,-3.015
344.14,-0.35,-2.935
344.14,-0.375,-2.835
344.14,-0.385,-2.735
344.15,-0.415,-2.615
344.15,-0.43,-2.465
344.15,-0.405,-2.325
344.16,-0.375,-2.16
344.16,-0.355,-1.975
344.16,-0.34,-1.785
344.16,-0.36,-1.565
344.17,-0.355,-1.355
344.17,-0.345,-1.155
344.17,-0.33,-0.96
344.17,-0.34,-0.77
344.18,-0.34,-0.605
344.18,-0.35,-0.43
344.18,-0.365,-0.29
344.19,-0.37,-0.14
344.19,-0.38,-0.005
344.19,-0.375,0.115
344.19,-0.385,0.22
344.2,-0.395,0.34
344.2,-0.38,0.435
344.2,-0.355,0.51
344.21,-0.35,0.56
344.21,-0.35,0.6
344.21,-0.365,0.625
344.21,-0.375,0.66
344.22,-0.365,0.705
344.22,-0.375,0.745
344.22,-0.35,0.77
344.22,-0.35,0.79
344.23,-0.35,0.815
344.23,-0.36,0.835
344.23,-0.36,0.865
344.24,-0.355,0.905
344.24,-0.335,0.935
344.24,-0.35,0.955
344.24,-0.35,0.985
344.25,-0.36,1
344.25,-0.37,1.03
344.25,-0.35,1.065
344.26,-0.345,1.1
344.26,-0.345,1.12
344.26,-0.365,1.14
344.26,-0.365,1.16
344.27,-0.36,1.2
344.27,-0.36,1.23
344.27,-0.355,1.265
344.27,-0.345,1.305
344.28,-0.355,1.315
344.28,-0.36,1.345
344.28,-0.355,1.38
344.29,-0.365,1.41
344.29,-0.35,1.45
344.29,-0.345,1.475
344.29,-0.355,1.475
344.3,-0.365,1.515
344.3,-0.36,1.53
344.3,-0.36,1.575
344.31,-0.34,1.6
344.31,-0.33,1.63
344.31,-0.325,1.62
344.31,-0.325,1.635
344.32,-0.33,1.675
344.32,-0.32,1.7
344.32,-0.31,1.73
344.32,-0.31,1.725
344.33,-0.31,1.735
344.33,-0.31,1.73
344.33,-0.315,1.74
344.34,-0.29,1.74
344.34,-0.27,1.735
344.34,-0.27,1.735
344.34,-0.275,1.7
344.35,-0.265,1.695
344.35,-0.26,1.67
344.35,-0.25,1.655
344.36,-0.225,1.63
344.36,-0.215,1.59
344.36,-0.21,1.55
344.36,-0.22,1.515
344.37,-0.21,1.46
344.37,-0.185,1.43
344.37,-0.18,1.39
344.38,-0.175,1.335
344.38,-0.17,1.28
344.38,-0.175,1.225
344.38,-0.17,1.165
344.39,-0.16,1.12
344.39,-0.135,1.06
344.39,-0.14,1.015
344.39,-0.145,0.945
344.4,-0.14,0.875
344.4,-0.14,0.825
344.4,-0.14,0.775
344.41,-0.13,0.735
344.41,-0.13,0.665
344.41,-0.135,0.61
344.41,-0.155,0.565
344.42,-0.15,0.52
344.42,-0.14,0.495
344.42,-0.14,0.44
344.42,-0.145,0.4
344.43,-0.15,0.35
344.43,-0.165,0.31
344.43,-0.175,0.285
344.44,-0.17,0.265
344.44,-0.155,0.235
344.44,-0.165,0.2
344.44,-0.175,0.18
344.45,-0.185,0.145
344.45,-0.185,0.125
344.45,-0.195,0.11
344.46,-0.18,0.105
344.46,-0.185,0.085
344.46,-0.195,0.055
344.46,-0.205,0.03
344.47,-0.21,0.03
344.47,-0.2,0.03
344.47,-0.195,0.015
344.47,-0.2,0.01
344.48,-0.215,-0.005
344.48,-0.22,-0.03
344.48,-0.215,-0.04
344.49,-0.21,-0.02
344.49,-0.2,-0.03
344.49,-0.205,-0.03
344.49,-0.21,-0.04
344.5,-0.225,-0.055
344.5,-0.225,-0.06
344.5,-0.21,-0.055
344.51,-0.21,-0.05
344.51,-0.205,-0.05
344.51,-0.22,-0.065
344.51,-0.225,-0.07
344.52,-0.22,-0.07
344.52,-0.215,-0.05
344.52,-0.21,-0.035
344.52,-0.2,-0.045
344.53,-0.215,-0.05
344.53,-0.225,-0.065
344.53,-0.225,-0.06
344.54,-0.21,-0.04
344.54,-0.205,-0.035
344.54,-0.21,-0.04
344.54,-0.215,-0.06
344.55,-0.225,-0.07
344.55,-0.225,-0.04
344.55,-0.215,-0.045
344.56,-0.21,-0.04
344.56,-0.21,-0.045
344.56,-0.215,-0.045
344.56,-0.225,-0.055
344.57,-0.225,-0.045
344.57,-0.215,-0.04
344.57,-0.21,-0.045
344.57,-0.215,-0.035
344.58,-0.22,-0.05
344.58,-0.23,-0.06
344.58,-0.235,-0.06
344.59,-0.23,-0.04
344.59,-0.225,-0.045
344.59,-0.215,-0.06
344.59,-0.22,-0.05
344.6,-0.235,-0.07
344.6,-0.225,-0.075
344.6,-0.225,-0.06
344.61,-0.23,-0.065
344.61,-0.225,-0.075
344.61,-0.225,-0.075
344.61,-0.235,-0.09
344.62,-0.25,-0.085
344.62,-0.24,-0.085
344.62,-0.235,-0.08
344.62,-0.245,-0.09
344.63,-0.245,-0.09
344.63,-0.265,-0.12
344.63,-0.27,-0.115
344.64,-0.255,-0.1
344.64,-0.25,-0.095
344.64,-0.25,-0.1
344.64,-0.255,-0.11
344.65,-0.255,-0.125
344.65,-0.265,-0.13
344.65,-0.275,-0.12
344.66,-0.26,-0.12
344.66,-0.25,-0.13
344.66,-0.265,-0.15
344.66,-0.275,-0.15
344.67,-0.265,-0.155
344.67,-0.265,-0.14
344.67,-0.255,-0.145
344.67,-0.265,-0.15
344.68,-0.275,-0.16
344.68,-0.27,-0.17
344.68,-0.285,-0.175
344.69,-0.275,-0.15
344.69,-0.265,-0.165
344.69,-0.265,-0.16
344.69,-0.27,-0.18
344.7,-0.295,-0.19
344.7,-0.28,-0.175
344.7,-0.285,-0.17
344.71,-0.275,-0.175
344.71,-0.275,-0.175
344.71,-0.285,-0.19
344.71,-0.29,-0.205
344.72,-0.29,-0.19
344.72,-0.28,-0.185
344.72,-0.27,-0.18
344.72,-0.275,-0.19
344.73,-0.295,-0.195
344.73,-0.285,-0.22
344.73,-0.3,-0.195
344.74,-0.285,-0.19
344.74,-0.27,-0.185
344.74,-0.285,-0.2
344.74,-0.285,-0.205
344.75,-0.295,-0.22
344.75,-0.285,-0.215
344.75,-0.29,-0.21
344.76,-0.295,-0.195
344.76,-0.275,-0.205
344.76,-0.29,-0.21
344.76,-0.29,-0.225
344.77,-0.3,-0.21
344.77,-0.29,-0.195
344.77,-0.275,-0.205
344.77,-0.28,-0.205
344.78,-0.285,-0.21
344.78,-0.295,-0.23
344.78,-0.29,-0.22
344.79,-0.29,-0.2
344.79,-0.28,-0.205
344.79,-0.27,-0.215
344.79,-0.29,-0.215
344.8,-0.285,-0.215
344.8,-0.285,-0.225
344.8,-0.275,-0.215
344.81,-0.275,-0.205
344.81,-0.275,-0.22
344.81,-0.28,-0.22
344.81,-0.285,-0.23
344.82,-0.29,-0.23
344.82,-0.29,-0.215
344.82,-0.275,-0.205
344.82,-0.265,-0.22
344.83,-0.275,-0.225
344.83,-0.275,-0.225
344.83,-0.285,-0.23
344.84,-0.28,-0.225
344.84,-0.265,-0.2
344.84,-0.27,-0.215
344.84,-0.27,-0.24
344.85,-0.285,-0.24
344.85,-0.285,-0.23
344.85,-0.265,-0.215
344.86,-0.265,-0.215
344.86,-0.275,-0.205
344.86,-0.265,-0.22
344.86,-0.27,-0.2
344.87,-0.265,-0.18
344.87,-0.24,-0.15
344.87,-0.225,-0.065
344.88,-0.21,0.155
344.88,-0.19,0.47
344.88,-0.165,0.685
344.88,-0.115,0.615
344.89,-0.01,0.41
344.89,0.245,0.27
344.89,0.585,0.215
344.89,0.81,0.17
344.9,0.705,0.125
344.9,0.405,0.085
344.9,0.19,0.07
344.91,0.13,0.035
344.91,0.14,-0.035
344.91,0.165,-0.145
344.91,0.17,-0.3
344.92,0.17,-0.47
344.92,0.19,-0.695
344.92,0.19,-0.925
344.92,0.21,-1.17
344.93,0.215,-1.425
344.93,0.21,-1.71
344.93,0.2,-1.945
344.94,0.19,-2.13
344.94,0.205,-2.29
344.94,0.215,-2.42
344.94,0.215,-2.53
344.95,0.195,-2.62
344.95,0.175,-2.71
344.95,0.18,-2.815
344.96,0.18,-2.895
344.96,0.145,-2.945
344.96,0.09,-3
344.96,-0.01,-3.03
344.97,-0.065,-3.045
344.97,-0.095,-3.05
344.97,-0.135,-3.06
344.97,-0.205,-3.07
344.98,-0.3,-3.095
344.98,-0.385,-3.1
344.98,-0.45,-3.09
344.99,-0.43,-3.085
344.99,-0.395,-3.08
344.99,-0.365,-3.07
344.99,-0.355,-3.07
345,-0.36,-3.065
345,-0.395,-3.035
345,-0.4,-2.96
345.01,-0.41,-2.905
345.01,-0.42,-2.81
345.01,-0.425,-2.715
345.01,-0.42,-2.595
345.02,-0.41,-2.45
345.02,-0.395,-2.27
345.02,-0.365,-2.05
345.02,-0.36,-1.8
345.03,-0.36,-1.57
345.03,-0.365,-1.365
345.03,-0.365,-1.135
345.04,-0.345,-0.925
345.04,-0.325,-0.69
345.04,-0.315,-0.495
345.04,-0.335,-0.325
345.05,-0.36,-0.175
345.05,-0.375,-0.02
345.05,-0.37,0.13
345.06,-0.37,0.27
345.06,-0.36,0.385
345.06,-0.36,0.49
345.06,-0.35,0.54
345.07,-0.35,0.615
345.07,-0.345,0.665
345.07,-0.34,0.72
345.07,-0.35,0.74
345.08,-0.355,0.755
345.08,-0.38,0.785
345.08,-0.39,0.82
345.09,-0.385,0.855
345.09,-0.38,0.88
345.09,-0.37,0.905
345.09,-0.385,0.915
345.1,-0.39,0.935
345.1,-0.385,0.965
345.1,-0.385,0.995
345.11,-0.385,1.02
345.11,-0.39,1.05
345.11,-0.4,1.05
345.11,-0.41,1.075
345.12,-0.415,1.1
345.12,-0.41,1.14
345.12,-0.395,1.165
345.12,-0.41,1.18
345.13,-0.43,1.195
345.13,-0.44,1.215
345.13,-0.445,1.25
345.14,-0.43,1.27
345.14,-0.43,1.32
345.14,-0.425,1.335
345.14,-0.435,1.37
345.15,-0.45,1.375
345.15,-0.455,1.415
345.15,-0.445,1.45
345.16,-0.445,1.49
345.16,-0.44,1.51
345.16,-0.445,1.545
345.16,-0.445,1.575
345.17,-0.45,1.605
345.17,-0.435,1.64
345.17,-0.425,1.665
345.17,-0.42,1.69
345.18,-0.42,1.715
345.18,-0.42,1.725
345.18,-0.425,1.755
345.19,-0.395,1.775
345.19,-0.375,1.8
345.19,-0.375,1.805
345.19,-0.38,1.81
345.2,-0.37,1.81
345.2,-0.37,1.815
345.2,-0.345,1.805
345.21,-0.33,1.805
345.21,-0.33,1.795
345.21,-0.31,1.77
345.21,-0.315,1.745
345.22,-0.31,1.73
345.22,-0.28,1.7
345.22,-0.255,1.67
345.22,-0.24,1.64
345.23,-0.235,1.585
345.23,-0.235,1.52
345.23,-0.23,1.48
345.24,-0.21,1.43
345.24,-0.185,1.385
345.24,-0.175,1.325
345.24,-0.175,1.255
345.25,-0.175,1.18
345.25,-0.17,1.115
345.25,-0.15,1.065
345.26,-0.14,1
345.26,-0.135,0.94
345.26,-0.14,0.87
345.26,-0.145,0.79
345.27,-0.145,0.735
345.27,-0.14,0.705
345.27,-0.14,0.635
345.27,-0.14,0.59
345.28,-0.14,0.54
345.28,-0.16,0.475
345.28,-0.165,0.44
345.29,-0.155,0.4
345.29,-0.15,0.375
345.29,-0.155,0.33
345.29,-0.175,0.285
345.3,-0.2,0.25
345.3,-0.205,0.22
345.3,-0.195,0.21
345.31,-0.195,0.185
345.31,-0.195,0.145
345.31,-0.205,0.13
345.31,-0.21,0.11
345.32,-0.22,0.085
345.32,-0.21,0.08
345.32,-0.205,0.075
345.32,-0.21,0.06
345.33,-0.215,0.06
345.33,-0.23,0.035
345.33,-0.23,0.04
345.34,-0.215,0.045
345.34,-0.22,0.03
345.34,-0.22,0.025
345.34,-0.23,0.005
345.35,-0.245,0
345.35,-0.235,0.005
345.35,-0.23,0.02
345.36,-0.23,0.015
345.36,-0.22,0.02
345.36,-0.225,0
345.36,-0.23,-0.005
345.37,-0.25,0
345.37,-0.235,0.02
345.37,-0.23,0.02
345.38,-0.225,0.015
345.38,-0.24,0.005
345.38,-0.26,0
345.38,-0.265,0.005
345.39,-0.25,0.01
345.39,-0.24,0.02
345.39,-0.23,0.015
345.39,-0.25,-0.005
345.4,-0.255,0
345.4,-0.255,0
345.4,-0.255,0.01
345.41,-0.23,0.01
345.41,-0.235,0.005
345.41,-0.24,-0.005
345.41,-0.255,-0.005
345.42,-0.265,-0.01
345.42,-0.265,0.01
345.42,-0.24,0.015
345.42,-0.245,0
345.43,-0.245,-0.005
345.43,-0.275,-0.015
345.43,-0.27,-0.005
345.44,-0.255,-0.005
345.44,-0.245,0
345.44,-0.245,-0.005
345.44,-0.255,-0.02
345.45,-0.25,-0.025
345.45,-0.27,-0.02
345.45,-0.26,-0.02
345.46,-0.26,-0.025
345.46,-0.24,-0.035
345.46,-0.255,-0.035
345.46,-0.275,-0.055
345.47,-0.275,-0.045
345.47,-0.265,-0.04
345.47,-0.26,-0.045
345.47,-0.265,-0.06
345.48,-0.275,-0.065
345.48,-0.28,-0.08
345.48,-0.29,-0.085
345.49,-0.285,-0.07
345.49,-0.29,-0.08
345.49,-0.275,-0.09
345.49,-0.255,-0.1
345.5,-0.265,-0.105
345.5,-0.255,-0.11
345.5,-0.25,-0.1
345.51,-0.25,-0.105
345.51,-0.265,-0.115
345.51,-0.305,-0.13
345.51,-0.3,-0.135
345.52,-0.315,-0.14
345.52,-0.31,-0.12
345.52,-0.295,-0.115
345.52,-0.295,-0.13
345.53,-0.3,-0.135
345.53,-0.305,-0.145
345.53,-0.3,-0.145
345.54,-0.29,-0.14
345.54,-0.295,-0.14
345.54,-0.295,-0.145
345.54,-0.285,-0.15
345.55,-0.305,-0.16
345.55,-0.315,-0.15
345.55,-0.32,-0.155
345.56,-0.31,-0.145
345.56,-0.305,-0.155
345.56,-0.305,-0.16
345.56,-0.3,-0.17
345.57,-0.325,-0.175
345.57,-0.305,-0.16
345.57,-0.295,-0.165
345.57,-0.305,-0.16
345.58,-0.305,-0.16
345.58,-0.315,-0.175
345.58,-0.315,-0.175
345.59,-0.295,-0.16
345.59,-0.295,-0.16
345.59,-0.3,-0.175
345.59,-0.305,-0.18
345.6,-0.305,-0.185
345.6,-0.305,-0.18
345.6,-0.295,-0.17
345.61,-0.285,-0.16
345.61,-0.29,-0.17
345.61,-0.3,-0.19
345.61,-0.305,-0.19
345.62,-0.315,-0.18
345.62,-0.31,-0.17
345.62,-0.305,-0.175
345.62,-0.315,-0.18
345.63,-0.315,-0.195
345.63,-0.325,-0.19
345.63,-0.325,-0.195
345.64,-0.315,-0.19
345.64,-0.305,-0.18
345.64,-0.31,-0.185
345.64,-0.315,-0.195
345.65,-0.31,-0.215
345.65,-0.295,-0.2
345.65,-0.27,-0.2
345.66,-0.27,-0.195
345.66,-0.275,-0.185
345.66,-0.285,-0.205
345.66,-0.305,-0.215
345.67,-0.31,-0.215
345.67,-0.315,-0.195
345.67,-0.295,-0.185
345.67,-0.29,-0.185
345.68,-0.3,-0.205
345.68,-0.32,-0.215
345.68,-0.315,-0.205
345.69,-0.295,-0.205
345.69,-0.295,-0.19
345.69,-0.29,-0.195
345.69,-0.305,-0.205
345.7,-0.3,-0.205
345.7,-0.31,-0.2
345.7,-0.295,-0.19
345.71,-0.285,-0.175
345.71,-0.29,-0.175
345.71,-0.285,-0.185
345.71,-0.295,-0.185
345.72,-0.285,-0.155
345.72,-0.29,-0.135
345.72,-0.285,-0.07
345.72,-0.25,0.105
345.73,-0.215,0.425
345.73,-0.185,0.74
345.73,-0.135,0.785
345.74,-0.035,0.55
345.74,0.2,0.33
345.74,0.585,0.235
345.74,0.84,0.18
345.75,0.78,0.125
345.75,0.465,0.08
345.75,0.21,0.03
345.76,0.135,-0.04
345.76,0.145,-0.175
345.76,0.15,-0.325
345.76,0.13,-0.495
345.77,0.13,-0.68
345.77,0.145,-0.875
345.77,0.15,-1.095
345.77,0.15,-1.305
345.78,0.145,-1.5
345.78,0.13,-1.66
345.78,0.125,-1.795
345.79,0.125,-1.915
345.79,0.135,-2.075
345.79,0.155,-2.255
345.79,0.15,-2.425
345.8,0.155,-2.54
345.8,0.135,-2.625
345.8,0.12,-2.695
345.81,0.1,-2.775
345.81,0.06,-2.86
345.81,0.01,-2.92
345.81,-0.065,-2.97
345.82,-0.13,-2.995
345.82,-0.185,-3.005
345.82,-0.225,-3.015
345.82,-0.28,-3.03
345.83,-0.365,-3.035
345.83,-0.475,-3.06
345.83,-0.555,-3.05
345.84,-0.59,-3.045
345.84,-0.565,-3.05
345.84,-0.53,-3.045
345.84,-0.505,-3.04
345.85,-0.49,-3.01
345.85,-0.5,-2.97
345.85,-0.495,-2.885
345.86,-0.485,-2.785
345.86,-0.48,-2.655
345.86,-0.465,-2.505
345.86,-0.45,-2.335
345.87,-0.41,-2.13
345.87,-0.38,-1.9
345.87,-0.34,-1.65
345.88,-0.32,-1.395
345.88,-0.315,-1.145
345.88,-0.325,-0.92
345.88,-0.34,-0.7
345.89,-0.34,-0.49
345.89,-0.33,-0.29
345.89,-0.345,-0.11
345.89,-0.36,0.04
345.9,-0.385,0.195
345.9,-0.385,0.355
345.9,-0.37,0.48
345.91,-0.365,0.585
345.91,-0.355,0.665
345.91,-0.345,0.705
345.91,-0.345,0.73
345.92,-0.34,0.775
345.92,-0.32,0.825
345.92,-0.315,0.86
345.92,-0.315,0.89
345.93,-0.305,0.905
345.93,-0.3,0.92
345.93,-0.285,0.955
345.94,-0.26,0.97
345.94,-0.255,0.99
345.94,-0.255,1
345.94,-0.265,1.015
345.95,-0.275,1.01
345.95,-0.275,1.04
345.95,-0.265,1.06
345.96,-0.24,1.085
345.96,-0.23,1.095
345.96,-0.23,1.105
345.96,-0.235,1.115
345.97,-0.24,1.145
345.97,-0.235,1.16
345.97,-0.23,1.18
345.97,-0.24,1.21
345.98,-0.255,1.225
345.98,-0.275,1.255
345.98,-0.28,1.315
345.99,-0.27,1.35
345.99,-0.235,1.39
345.99,-0.245,1.425
345.99,-0.265,1.43
346,-0.285,1.46
346,-0.31,1.495
346,-0.315,1.54
346.01,-0.3,1.56
346.01,-0.295,1.585
346.01,-0.295,1.605
346.01,-0.29,1.62
346.02,-0.28,1.635
346.02,-0.25,1.66
346.02,-0.25,1.68
346.02,-0.25,1.69
346.03,-0.265,1.695
346.03,-0.27,1.695
346.03,-0.275,1.71
346.04,-0.24,1.72
346.04,-0.235,1.72
346.04,-0.25,1.71
346.04,-0.26,1.695
346.05,-0.25,1.665
346.05,-0.245,1.64
346.05,-0.225,1.635
346.06,-0.215,1.605
346.06,-0.2,1.575
346.06,-0.2,1.525
346.06,-0.19,1.495
346.07,-0.185,1.445
346.07,-0.155,1.4
346.07,-0.14,1.355
346.07,-0.135,1.29
346.08,-0.135,1.225
346.08,-0.135,1.16
346.08,-0.145,1.105
346.09,-0.13,1.06
346.09,-0.12,0.995
346.09,-0.13,0.935
346.09,-0.145,0.87
346.1,-0.155,0.805
346.1,-0.135,0.76
346.1,-0.12,0.71
346.11,-0.095,0.655
346.11,-0.1,0.6
346.11,-0.115,0.535
346.11,-0.12,0.47
346.12,-0.13,0.43
346.12,-0.125,0.395
346.12,-0.13,0.35
346.12,-0.15,0.32
346.13,-0.165,0.28
346.13,-0.16,0.245
346.13,-0.165,0.23
346.14,-0.155,0.205
346.14,-0.135,0.175
346.14,-0.145,0.16
346.14,-0.165,0.14
346.15,-0.17,0.105
346.15,-0.17,0.1
346.15,-0.165,0.09
346.16,-0.17,0.09
346.16,-0.175,0.075
346.16,-0.2,0.045
346.16,-0.21,0.04
346.17,-0.215,0.035
346.17,-0.195,0.035
346.17,-0.195,0.03
346.17,-0.175,0.035
346.18,-0.18,0.01
346.18,-0.195,0.01
346.18,-0.205,0.005
346.19,-0.215,0.02
346.19,-0.215,0.02
346.19,-0.21,0.02
346.19,-0.23,0.02
346.2,-0.215,0.01
346.2,-0.215,0.01
346.2,-0.2,0.03
346.21,-0.185,0.02
346.21,-0.185,0.02
346.21,-0.205,0.015
346.21,-0.205,0
346.22,-0.2,0.01
346.22,-0.2,0.02
346.22,-0.205,0.02
346.22,-0.195,0.015
346.23,-0.205,0.01
346.23,-0.22,0.01
346.23,-0.225,0.01
346.24,-0.215,0.02
346.24,-0.195,0.02
346.24,-0.215,0.03
346.24,-0.22,0.01
346.25,-0.225,0.005
346.25,-0.23,0.015
346.25,-0.23,0.025
346.26,-0.215,0.02
346.26,-0.23,0.025
346.26,-0.23,0.005
346.26,-0.235,0.005
346.27,-0.23,0.005
346.27,-0.235,0.015
346.27,-0.225,0
346.27,-0.21,-0.005
346.28,-0.225,-0.01
346.28,-0.23,-0.02
346.28,-0.25,-0.02
346.29,-0.24,-0.005
346.29,-0.225,-0.01
346.29,-0.225,-0.01
346.29,-0.235,-0.03
346.3,-0.245,-0.03
346.3,-0.25,-0.03
346.3,-0.24,-0.03
346.31,-0.235,-0.025
346.31,-0.25,-0.04
346.31,-0.245,-0.045
346.31,-0.255,-0.06
346.32,-0.26,-0.045
346.32,-0.25,-0.055
346.32,-0.245,-0.065
346.32,-0.255,-0.065
346.33,-0.255,-0.08
346.33,-0.265,-0.085
346.33,-0.27,-0.08
346.34,-0.275,-0.075
346.34,-0.265,-0.08
346.34,-0.25,-0.085
346.34,-0.245,-0.1
346.35,-0.255,-0.1
346.35,-0.265,-0.105
346.35,-0.265,-0.095
346.36,-0.245,-0.1
346.36,-0.265,-0.11
346.36,-0.275,-0.125
346.36,-0.275,-0.12
346.37,-0.275,-0.11
346.37,-0.265,-0.11
346.37,-0.265,-0.115
346.38,-0.27,-0.115
346.38,-0.265,-0.135
346.38,-0.27,-0.14
346.38,-0.275,-0.14
346.39,-0.27,-0.125
346.39,-0.25,-0.13
346.39,-0.27,-0.14
346.39,-0.28,-0.145
346.4,-0.28,-0.15
346.4,-0.29,-0.15
346.4,-0.275,-0.135
346.41,-0.265,-0.135
346.41,-0.27,-0.145
346.41,-0.28,-0.15
346.41,-0.285,-0.165
346.42,-0.285,-0.16
346.42,-0.28,-0.155
346.42,-0.275,-0.155
346.42,-0.27,-0.155
346.43,-0.27,-0.16
346.43,-0.28,-0.16
346.43,-0.28,-0.16
346.44,-0.28,-0.15
346.44,-0.265,-0.15
346.44,-0.275,-0.145
346.44,-0.275,-0.15
346.45,-0.28,-0.16
346.45,-0.285,-0.145
346.45,-0.275,-0.145
346.46,-0.275,-0.155
346.46,-0.28,-0.145
346.46,-0.29,-0.16
346.46,-0.295,-0.17
346.47,-0.3,-0.175
346.47,-0.285,-0.16
346.47,-0.275,-0.155
346.47,-0.275,-0.17
346.48,-0.29,-0.17
346.48,-0.295,-0.175
346.48,-0.305,-0.165
346.49,-0.295,-0.155
346.49,-0.28,-0.155
346.49,-0.28,-0.165
346.49,-0.285,-0.17
346.5,-0.295,-0.18
346.5,-0.285,-0.175
346.5,-0.28,-0.155
346.51,-0.285,-0.155
346.51,-0.285,-0.165
346.51,-0.29,-0.18
346.51,-0.3,-0.18
346.52,-0.305,-0.18
346.52,-0.29,-0.16
346.52,-0.28,-0.16
346.52,-0.28,-0.16
346.53,-0.285,-0.155
346.53,-0.29,-0.17
346.53,-0.28,-0.17
346.54,-0.28,-0.16
346.54,-0.265,-0.145
346.54,-0.27,-0.14
346.54,-0.275,-0.15
346.55,-0.27,-0.125
346.55,-0.27,-0.09
346.55,-0.245,0.025
346.56,-0.23,0.28
346.56,-0.2,0.69
346.56,-0.17,0.885
346.56,-0.12,0.745
346.57,0.025,0.47
346.57,0.33,0.315
346.57,0.705,0.265
346.57,0.87,0.235
346.58,0.66,0.19
346.58,0.325,0.145
346.58,0.12,0.125
346.59,0.09,0.085
346.59,0.14,0.02
346.59,0.155,-0.095
346.59,0.16,-0.25
346.6,0.16,-0.45
346.6,0.165,-0.64
346.6,0.195,-0.85
346.61,0.22,-1.065
346.61,0.225,-1.32
346.61,0.215,-1.55
346.61,0.205,-1.76
346.62,0.18,-1.955
346.62,0.2,-2.095
346.62,0.22,-2.255
346.62,0.21,-2.375
346.63,0.21,-2.47
346.63,0.19,-2.585
346.63,0.165,-2.695
346.64,0.16,-2.79
346.64,0.14,-2.865
346.64,0.085,-2.925
346.64,-0.01,-2.96
346.65,-0.075,-3
346.65,-0.12,-3.015
346.65,-0.155,-3.025
346.66,-0.22,-3.035
346.66,-0.325,-3.045
346.66,-0.4,-3.065
346.66,-0.43,-3.06
346.67,-0.435,-3.055
346.67,-0.38,-3.035
346.67,-0.365,-3.025
346.67,-0.37,-3.015
346.68,-0.4,-2.965
346.68,-0.425,-2.9
346.68,-0.44,-2.805
346.69,-0.44,-2.67
346.69,-0.44,-2.545
346.69,-0.435,-2.4
346.69,-0.43,-2.22
346.7,-0.43,-2.025
346.7,-0.415,-1.775
346.7,-0.39,-1.535
346.71,-0.39,-1.29
346.71,-0.39,-1.075
346.71,-0.395,-0.865
346.71,-0.395,-0.645
346.72,-0.405,-0.435
346.72,-0.4,-0.255
346.72,-0.395,-0.095
346.72,-0.41,0.035
346.73,-0.425,0.18
346.73,-0.43,0.305
346.73,-0.43,0.435
346.74,-0.395,0.55
346.74,-0.385,0.625
346.74,-0.395,0.665
346.74,-0.395,0.7
346.75,-0.39,0.73
346.75,-0.39,0.78
346.75,-0.375,0.825
346.76,-0.365,0.865
346.76,-0.36,0.88
346.76,-0.375,0.915
346.76,-0.365,0.94
346.77,-0.38,0.98
346.77,-0.36,1.02
346.77,-0.365,1.035
346.77,-0.355,1.045
346.78,-0.36,1.055
346.78,-0.38,1.065
346.78,-0.385,1.1
346.79,-0.36,1.115
346.79,-0.34,1.14
346.79,-0.345,1.16
346.79,-0.355,1.18
346.8,-0.365,1.195
346.8,-0.355,1.21
346.8,-0.355,1.245
346.81,-0.345,1.27
346.81,-0.345,1.28
346.81,-0.355,1.295
346.81,-0.385,1.32
346.82,-0.375,1.35
346.82,-0.37,1.39
346.82,-0.365,1.415
346.82,-0.355,1.435
346.83,-0.36,1.46
346.83,-0.37,1.51
346.83,-0.365,1.545
346.84,-0.38,1.575
346.84,-0.375,1.615
346.84,-0.39,1.635
346.84,-0.395,1.65
346.85,-0.405,1.67
346.85,-0.42,1.7
346.85,-0.395,1.73
346.86,-0.38,1.75
346.86,-0.385,1.78
346.86,-0.38,1.775
346.86,-0.38,1.78
346.87,-0.395,1.795
346.87,-0.365,1.805
346.87,-0.355,1.82
346.88,-0.345,1.82
346.88,-0.36,1.795
346.88,-0.345,1.785
346.88,-0.35,1.785
346.89,-0.33,1.77
346.89,-0.325,1.75
346.89,-0.315,1.72
346.89,-0.305,1.685
346.9,-0.31,1.66
346.9,-0.31,1.625
346.9,-0.285,1.59
346.91,-0.27,1.55
346.91,-0.27,1.505
346.91,-0.265,1.445
346.91,-0.26,1.39
346.92,-0.265,1.32
346.92,-0.23,1.28
346.92,-0.22,1.225
346.92,-0.21,1.17
346.93,-0.21,1.095
346.93,-0.195,1.025
346.93,-0.2,0.965
346.94,-0.185,0.915
346.94,-0.18,0.855
346.94,-0.175,0.795
346.94,-0.18,0.715
346.95,-0.19,0.675
346.95,-0.185,0.615
346.95,-0.185,0.585
346.96,-0.175,0.535
346.96,-0.185,0.49
346.96,-0.19,0.44
346.96,-0.205,0.41
346.97,-0.215,0.38
346.97,-0.205,0.34
346.97,-0.19,0.31
346.97,-0.195,0.265
346.98,-0.21,0.24
346.98,-0.215,0.2
346.98,-0.22,0.205
346.99,-0.22,0.185
346.99,-0.215,0.165
346.99,-0.22,0.15
346.99,-0.235,0.12
347,-0.23,0.1
347,-0.245,0.09
347,-0.24,0.095
347.01,-0.24,0.095
347.01,-0.245,0.065
347.01,-0.245,0.055
347.01,-0.245,0.045
347.02,-0.26,0.045
347.02,-0.25,0.065
347.02,-0.25,0.045
347.02,-0.245,0.04
347.03,-0.26,0.02
347.03,-0.265,0.03
347.03,-0.27,0.03
347.04,-0.265,0.045
347.04,-0.26,0.055
347.04,-0.26,0.04
347.04,-0.27,0.035
347.05,-0.27,0.025
347.05,-0.275,0.045
347.05,-0.26,0.045
347.06,-0.26,0.035
347.06,-0.265,0.035
347.06,-0.285,0.035
347.06,-0.28,0.03
347.07,-0.28,0.035
347.07,-0.285,0.045
347.07,-0.265,0.045
347.07,-0.28,0.05
347.08,-0.28,0.035
347.08,-0.295,0.03
347.08,-0.295,0.035
347.09,-0.275,0.06
347.09,-0.28,0.055
347.09,-0.285,0.045
347.09,-0.29,0.03
347.1,-0.285,0.03
347.1,-0.3,0.035
347.1,-0.285,0.04
347.11,-0.285,0.05
347.11,-0.28,0.035
347.11,-0.285,0.03
347.11,-0.295,0.025
347.12,-0.305,0.015
347.12,-0.3,0.035
347.12,-0.285,0.025
347.12,-0.295,0.015
347.13,-0.305,0.01
347.13,-0.315,0
347.13,-0.315,0.01
347.14,-0.3,0.015
347.14,-0.29,0.02
347.14,-0.295,0.015
347.14,-0.31,-0.015
347.15,-0.31,-0.015
347.15,-0.32,-0.02
347.15,-0.31,-0.01
347.16,-0.295,-0.01
347.16,-0.3,-0.015
347.16,-0.315,-0.035
347.16,-0.32,-0.04
347.17,-0.325,-0.04
347.17,-0.315,-0.04
347.17,-0.31,-0.03
347.17,-0.31,-0.045
347.18,-0.32,-0.06
347.18,-0.325,-0.07
347.18,-0.34,-0.065
347.19,-0.34,-0.055
347.19,-0.325,-0.065
347.19,-0.32,-0.07
347.19,-0.32,-0.08
347.2,-0.335,-0.095
347.2,-0.345,-0.085
347.2,-0.32,-0.085
347.21,-0.315,-0.09
347.21,-0.325,-0.09
347.21,-0.34,-0.11
347.21,-0.34,-0.11
347.22,-0.345,-0.105
347.22,-0.325,-0.095
347.22,-0.315,-0.095
347.22,-0.32,-0.11
347.23,-0.33,-0.125
347.23,-0.34,-0.125
347.23,-0.35,-0.135
347.24,-0.335,-0.115
347.24,-0.325,-0.11
347.24,-0.33,-0.115
347.24,-0.345,-0.125
347.25,-0.35,-0.14
347.25,-0.345,-0.13
347.25,-0.325,-0.125
347.26,-0.32,-0.13
347.26,-0.325,-0.13
347.26,-0.335,-0.13
347.26,-0.34,-0.145
347.27,-0.34,-0.135
347.27,-0.33,-0.13
347.27,-0.33,-0.135
347.27,-0.335,-0.14
347.28,-0.34,-0.14
347.28,-0.345,-0.145
347.28,-0.345,-0.145
347.29,-0.335,-0.125
347.29,-0.33,-0.13
347.29,-0.34,-0.145
347.29,-0.345,-0.14
347.3,-0.345,-0.165
347.3,-0.345,-0.145
347.3,-0.335,-0.145
347.31,-0.325,-0.15
347.31,-0.325,-0.15
347.31,-0.34,-0.155
347.31,-0.345,-0.17
347.32,-0.34,-0.17
347.32,-0.33,-0.155
347.32,-0.32,-0.15
347.32,-0.325,-0.15
347.33,-0.33,-0.165
347.33,-0.345,-0.16
347.33,-0.345,-0.16
347.34,-0.335,-0.14
347.34,-0.31,-0.15
347.34,-0.325,-0.15
347.34,-0.33,-0.16
347.35,-0.33,-0.175
347.35,-0.335,-0.165
347.35,-0.325,-0.155
347.36,-0.315,-0.165
347.36,-0.32,-0.145
347.36,-0.315,-0.16
347.36,-0.32,-0.165
347.37,-0.33,-0.155
347.37,-0.31,-0.145
347.37,-0.29,-0.14
347.38,-0.295,-0.13
347.38,-0.305,-0.12
347.38,-0.3,-0.075
347.38,-0.295,0.085
347.39,-0.28,0.42
347.39,-0.24,0.82
347.39,-0.19,0.905
347.39,-0.135,0.615
347.4,0.05,0.32
347.4,0.435,0.225
347.4,0.765,0.19
347.41,0.71,0.14
347.41,0.375,0.055
347.41,0.125,-0.04
347.41,0.055,-0.145
347.42,0.075,-0.29
347.42,0.11,-0.42
347.42,0.135,-0.59
347.42,0.12,-0.78
347.43,0.105,-0.985
347.43,0.1,-1.18
347.43,0.115,-1.31
347.44,0.13,-1.455
347.44,0.14,-1.58
347.44,0.11,-1.75
347.44,0.1,-1.95
347.45,0.095,-2.18
347.45,0.09,-2.37
347.45,0.095,-2.5
347.46,0.09,-2.605
347.46,0.05,-2.71
347.46,0.01,-2.815
347.46,-0.03,-2.895
347.47,-0.095,-2.945
347.47,-0.14,-2.975
347.47,-0.205,-3.01
347.47,-0.26,-3.025
347.48,-0.345,-3.05
347.48,-0.45,-3.06
347.48,-0.53,-3.07
347.49,-0.565,-3.055
347.49,-0.555,-3.045
347.49,-0.525,-3.045
347.49,-0.48,-3.04
347.5,-0.455,-3.02
347.5,-0.44,-2.97
347.5,-0.43,-2.9
