289.25,-0.33,-0.065
289.25,-0.335,-0.075
289.26,-0.335,-0.095
289.26,-0.34,-0.11
289.26,-0.345,-0.105
289.26,-0.34,-0.1
289.27,-0.34,-0.09
289.27,-0.34,-0.095
289.27,-0.34,-0.115
289.27,-0.345,-0.125
289.28,-0.36,-0.11
289.28,-0.355,-0.105
289.28,-0.345,-0.105
289.29,-0.35,-0.125
289.29,-0.355,-0.115
289.29,-0.35,-0.125
289.29,-0.355,-0.125
289.3,-0.35,-0.12
289.3,-0.34,-0.12
289.3,-0.355,-0.125
289.31,-0.355,-0.13
289.31,-0.35,-0.145
289.31,-0.355,-0.135
289.31,-0.345,-0.13
289.32,-0.34,-0.125
289.32,-0.335,-0.13
289.32,-0.335,-0.135
289.32,-0.35,-0.145
289.33,-0.36,-0.155
289.33,-0.34,-0.135
289.33,-0.345,-0.13
289.34,-0.335,-0.135
289.34,-0.345,-0.145
289.34,-0.345,-0.155
289.34,-0.345,-0.15
289.35,-0.335,-0.135
289.35,-0.345,-0.13
289.35,-0.34,-0.14
289.36,-0.355,-0.15
289.36,-0.355,-0.165
289.36,-0.345,-0.15
289.36,-0.345,-0.15
289.37,-0.335,-0.14
289.37,-0.33,-0.155
289.37,-0.335,-0.155
289.38,-0.34,-0.165
289.38,-0.345,-0.165
289.38,-0.35,-0.16
289.38,-0.325,-0.14
289.39,-0.33,-0.15
289.39,-0.33,-0.145
289.39,-0.345,-0.155
289.39,-0.35,-0.165
289.4,-0.335,-0.145
289.4,-0.32,-0.15
289.4,-0.315,-0.145
289.41,-0.315,-0.155
289.41,-0.32,-0.15
289.41,-0.33,-0.165
289.41,-0.325,-0.14
289.42,-0.305,-0.125
289.42,-0.315,-0.11
289.42,-0.305,-0.105
289.42,-0.31,-0.065
289.43,-0.305,0.09
289.43,-0.275,0.395
289.43,-0.245,0.745
289.44,-0.21,0.825
289.44,-0.165,0.6
289.44,-0.025,0.37
289.44,0.28,0.275
289.45,0.595,0.24
289.45,0.67,0.225
289.45,0.44,0.18
289.46,0.175,0.155
289.46,0.065,0.105
289.46,0.065,0.045
289.46,0.095,-0.03
289.47,0.14,-0.15
289.47,0.155,-0.325
289.47,0.155,-0.535
289.47,0.155,-0.76
289.48,0.165,-0.995
289.48,0.17,-1.22
289.48,0.19,-1.455
289.49,0.185,-1.71
289.49,0.185,-1.905
289.49,0.17,-2.08
289.49,0.165,-2.24
289.5,0.195,-2.365
289.5,0.205,-2.445
289.5,0.21,-2.54
289.51,0.195,-2.64
289.51,0.19,-2.76
289.51,0.155,-2.87
289.51,0.125,-2.92
289.52,0.075,-2.935
289.52,0,-2.965
289.52,-0.045,-3
289.52,-0.09,-3.03
289.53,-0.165,-3.03
289.53,-0.22,-3.025
289.53,-0.3,-3.025
289.54,-0.355,-3.03
289.54,-0.37,-3.04
289.54,-0.36,-3.04
289.54,-0.34,-3.035
289.55,-0.31,-3.015
289.55,-0.29,-2.99
289.55,-0.305,-2.97
289.56,-0.325,-2.93
289.56,-0.36,-2.875
289.56,-0.4,-2.79
289.56,-0.4,-2.675
289.57,-0.41,-2.545
289.57,-0.41,-2.395
289.57,-0.395,-2.25
289.57,-0.4,-2.08
289.58,-0.405,-1.83
289.58,-0.405,-1.595
289.58,-0.395,-1.38
289.59,-0.395,-1.18
289.59,-0.4,-0.985
289.59,-0.395,-0.785
289.59,-0.41,-0.575
289.6,-0.41,-0.38
289.6,-0.43,-0.22
289.6,-0.44,-0.065
289.61,-0.455,0.065
289.61,-0.495,0.2
289.61,-0.495,0.335
289.61,-0.47,0.45
289.62,-0.455,0.54
289.62,-0.45,0.6
289.62,-0.46,0.635
289.62,-0.465,0.68
289.63,-0.48,0.71
289.63,-0.465,0.755
289.63,-0.455,0.79
289.64,-0.46,0.82
289.64,-0.46,0.855
289.64,-0.46,0.88
289.64,-0.46,0.91
289.65,-0.46,0.945
289.65,-0.45,0.98
289.65,-0.44,0.995
289.66,-0.46,1.015
289.66,-0.47,1.035
289.66,-0.47,1.065
289.66,-0.465,1.105
289.67,-0.47,1.15
289.67,-0.47,1.175
289.67,-0.465,1.19
289.67,-0.455,1.215
289.68,-0.48,1.265
289.68,-0.475,1.31
289.68,-0.465,1.35
289.69,-0.46,1.37
289.69,-0.455,1.4
289.69,-0.47,1.43
289.69,-0.46,1.46
289.7,-0.46,1.52
289.7,-0.45,1.54
289.7,-0.45,1.585
289.71,-0.455,1.605
289.71,-0.445,1.62
289.71,-0.455,1.655
289.71,-0.44,1.695
289.72,-0.44,1.745
289.72,-0.43,1.765
289.72,-0.425,1.785
289.72,-0.42,1.8
289.73,-0.425,1.825
289.73,-0.405,1.88
289.73,-0.405,1.895
289.74,-0.395,1.905
289.74,-0.39,1.92
289.74,-0.4,1.92
289.74,-0.405,1.935
289.75,-0.395,1.95
289.75,-0.37,1.97
289.75,-0.365,1.955
289.76,-0.355,1.945
289.76,-0.345,1.93
289.76,-0.35,1.91
289.76,-0.325,1.925
289.77,-0.315,1.905
289.77,-0.3,1.875
289.77,-0.31,1.845
289.77,-0.305,1.795
289.78,-0.29,1.755
289.78,-0.265,1.74
289.78,-0.25,1.695
289.79,-0.23,1.645
289.79,-0.225,1.59
289.79,-0.22,1.525
289.79,-0.22,1.465
289.8,-0.205,1.405
289.8,-0.19,1.35
289.8,-0.19,1.285
289.81,-0.18,1.2
289.81,-0.18,1.14
289.81,-0.195,1.07
289.81,-0.195,1.02
289.82,-0.175,0.97
289.82,-0.175,0.895
289.82,-0.17,0.83
289.82,-0.17,0.75
289.83,-0.17,0.71
289.83,-0.165,0.67
289.83,-0.15,0.625
289.84,-0.16,0.565
289.84,-0.17,0.51
289.84,-0.18,0.45
289.84,-0.185,0.42
289.85,-0.18,0.375
289.85,-0.19,0.34
289.85,-0.185,0.32
289.86,-0.19,0.28
289.86,-0.205,0.235
289.86,-0.215,0.22
289.86,-0.23,0.195
289.87,-0.22,0.19
289.87,-0.22,0.16
289.87,-0.215,0.115
289.88,-0.215,0.105
289.88,-0.22,0.095
289.88,-0.215,0.09
289.88,-0.205,0.075
289.89,-0.21,0.08
289.89,-0.22,0.06
289.89,-0.24,0.04
289.89,-0.24,0.04
289.9,-0.245,0.04
289.9,-0.225,0.045
289.9,-0.235,0.03
289.91,-0.235,0.025
289.91,-0.235,0.005
289.91,-0.255,0.015
289.91,-0.255,0.02
289.92,-0.25,0.025
289.92,-0.235,0.015
289.92,-0.245,0.005
289.92,-0.25,-0.015
289.93,-0.25,-0.01
289.93,-0.25,-0.005
289.93,-0.235,0
289.94,-0.235,-0.005
289.94,-0.235,-0.005
289.94,-0.255,-0.01
289.94,-0.25,-0.015
289.95,-0.235,0
289.95,-0.23,0.015
289.95,-0.225,0
289.96,-0.24,-0.01
289.96,-0.26,-0.015
289.96,-0.265,-0.02
289.96,-0.24,-0.015
289.97,-0.24,-0.005
289.97,-0.235,-0.005
289.97,-0.235,-0.02
289.97,-0.255,-0.025
289.98,-0.27,-0.025
289.98,-0.27,-0.02
289.98,-0.265,-0.01
289.99,-0.26,-0.015
289.99,-0.265,-0.025
289.99,-0.26,-0.02
289.99,-0.275,-0.04
290,-0.26,-0.025
290,-0.25,-0.03
290,-0.26,-0.035
290.01,-0.265,-0.035
290.01,-0.29,-0.055
290.01,-0.29,-0.06
290.01,-0.265,-0.05
290.02,-0.26,-0.04
290.02,-0.255,-0.04
290.02,-0.25,-0.06
290.02,-0.265,-0.07
290.03,-0.275,-0.075
290.03,-0.26,-0.065
290.03,-0.27,-0.06
290.04,-0.26,-0.075
290.04,-0.28,-0.08
290.04,-0.28,-0.1
290.04,-0.275,-0.095
290.05,-0.28,-0.1
290.05,-0.275,-0.09
290.05,-0.285,-0.1
290.06,-0.285,-0.105
290.06,-0.29,-0.13
290.06,-0.29,-0.125
290.06,-0.275,-0.115
290.07,-0.28,-0.12
290.07,-0.275,-0.125
290.07,-0.285,-0.125
290.07,-0.285,-0.145
290.08,-0.285,-0.135
290.08,-0.28,-0.13
290.08,-0.27,-0.13
290.09,-0.28,-0.13
290.09,-0.28,-0.15
290.09,-0.29,-0.165
290.09,-0.3,-0.16
290.1,-0.295,-0.14
290.1,-0.27,-0.145
290.1,-0.285,-0.155
290.11,-0.29,-0.16
290.11,-0.295,-0.165
290.11,-0.31,-0.165
290.11,-0.305,-0.165
290.12,-0.29,-0.165
290.12,-0.27,-0.16
290.12,-0.27,-0.17
290.12,-0.28,-0.18
290.13,-0.29,-0.17
290.13,-0.29,-0.175
290.13,-0.27,-0.165
290.14,-0.27,-0.17
290.14,-0.28,-0.19
290.14,-0.285,-0.19
290.14,-0.295,-0.195
290.15,-0.28,-0.185
290.15,-0.275,-0.175
290.15,-0.295,-0.19
290.16,-0.315,-0.19
290.16,-0.31,-0.2
290.16,-0.315,-0.195
290.16,-0.305,-0.185
290.17,-0.285,-0.175
290.17,-0.265,-0.185
290.17,-0.27,-0.19
290.17,-0.27,-0.19
290.18,-0.28,-0.195
290.18,-0.27,-0.18
290.18,-0.265,-0.18
290.19,-0.26,-0.195
290.19,-0.255,-0.195
290.19,-0.26,-0.205
290.19,-0.26,-0.215
290.2,-0.255,-0.185
290.2,-0.255,-0.19
290.2,-0.265,-0.18
290.21,-0.265,-0.195
290.21,-0.27,-0.2
290.21,-0.27,-0.21
290.21,-0.26,-0.19
290.22,-0.25,-0.18
290.22,-0.255,-0.18
290.22,-0.265,-0.19
290.22,-0.255,-0.185
290.23,-0.25,-0.17
290.23,-0.245,-0.17
290.23,-0.245,-0.16
290.24,-0.245,-0.15
290.24,-0.255,-0.135
290.24,-0.265,-0.11
290.24,-0.245,0.045
290.25,-0.21,0.39
290.25,-0.155,0.725
290.25,-0.095,0.74
290.26,0,0.505
290.26,0.215,0.33
290.26,0.565,0.275
290.26,0.81,0.265
290.27,0.715,0.245
290.27,0.44,0.195
290.27,0.23,0.13
290.27,0.165,0.09
290.28,0.165,0.005
290.28,0.195,-0.085
290.28,0.225,-0.225
290.29,0.24,-0.41
290.29,0.245,-0.64
290.29,0.265,-0.87
290.29,0.26,-1.11
290.3,0.265,-1.345
290.3,0.27,-1.58
290.3,0.26,-1.835
290.31,0.25,-2.04
290.31,0.23,-2.22
290.31,0.235,-2.37
290.31,0.255,-2.475
290.32,0.265,-2.565
290.32,0.25,-2.66
290.32,0.235,-2.75
290.32,0.215,-2.84
290.33,0.195,-2.935
290.33,0.175,-2.96
290.33,0.115,-2.985
290.34,0.04,-3.01
290.34,-0.03,-3.02
290.34,-0.08,-3.05
290.34,-0.14,-3.05
290.35,-0.19,-3.06
290.35,-0.275,-3.055
290.35,-0.35,-3.06
290.36,-0.4,-3.06
290.36,-0.41,-3.05
290.36,-0.4,-3.055
290.36,-0.35,-3.03
290.37,-0.335,-3.005
290.37,-0.32,-2.965
290.37,-0.335,-2.93
290.38,-0.365,-2.87
290.38,-0.385,-2.77
290.38,-0.39,-2.645
290.38,-0.395,-2.525
290.39,-0.385,-2.395
290.39,-0.38,-2.27
290.39,-0.385,-2.11
290.39,-0.37,-1.905
290.4,-0.36,-1.69
290.4,-0.35,-1.48
290.4,-0.34,-1.265
290.41,-0.34,-1.08
290.41,-0.345,-0.885
290.41,-0.355,-0.67
290.41,-0.37,-0.48
290.42,-0.375,-0.305
290.42,-0.39,-0.16
290.42,-0.4,-0.02
290.42,-0.425,0.095
290.43,-0.415,0.23
290.43,-0.395,0.355
290.43,-0.375,0.465
290.44,-0.375,0.56
290.44,-0.365,0.615
290.44,-0.37,0.655
290.44,-0.385,0.7
290.45,-0.385,0.745
290.45,-0.375,0.78
290.45,-0.37,0.825
290.46,-0.365,0.845
290.46,-0.37,0.87
290.46,-0.36,0.91
290.46,-0.35,0.945
290.47,-0.345,0.975
290.47,-0.335,1.005
290.47,-0.335,1.025
290.47,-0.345,1.05
290.48,-0.35,1.09
290.48,-0.34,1.13
290.48,-0.335,1.165
290.49,-0.325,1.19
290.49,-0.335,1.215
290.49,-0.345,1.225
290.49,-0.36,1.265
290.5,-0.36,1.315
290.5,-0.34,1.355
290.5,-0.325,1.385
290.51,-0.31,1.4
290.51,-0.325,1.43
290.51,-0.31,1.47
290.51,-0.31,1.52
290.52,-0.305,1.545
290.52,-0.31,1.575
290.52,-0.32,1.61
290.52,-0.315,1.635
290.53,-0.31,1.665
290.53,-0.295,1.71
290.53,-0.3,1.735
290.54,-0.285,1.75
290.54,-0.29,1.77
290.54,-0.3,1.785
290.54,-0.29,1.81
290.55,-0.285,1.845
290.55,-0.255,1.875
290.55,-0.255,1.89
290.56,-0.255,1.9
290.56,-0.255,1.88
290.56,-0.265,1.905
290.56,-0.25,1.91
290.57,-0.225,1.915
290.57,-0.21,1.915
290.57,-0.195,1.91
290.57,-0.205,1.88
290.58,-0.19,1.875
290.58,-0.185,1.85
290.58,-0.19,1.83
290.59,-0.175,1.81
290.59,-0.17,1.755
290.59,-0.165,1.72
290.59,-0.15,1.675
290.6,-0.125,1.645
290.6,-0.12,1.595
290.6,-0.115,1.53
290.61,-0.11,1.48
290.61,-0.115,1.405
290.61,-0.105,1.36
290.61,-0.1,1.31
290.62,-0.09,1.245
290.62,-0.085,1.19
290.62,-0.085,1.125
290.62,-0.095,1.055
290.63,-0.09,0.985
290.63,-0.085,0.95
290.63,-0.08,0.895
290.64,-0.065,0.83
290.64,-0.065,0.78
290.64,-0.075,0.715
290.64,-0.095,0.665
290.65,-0.085,0.63
290.65,-0.085,0.58
290.65,-0.075,0.515
290.66,-0.08,0.48
290.66,-0.09,0.425
290.66,-0.1,0.385
290.66,-0.09,0.365
290.67,-0.09,0.34
290.67,-0.09,0.3
290.67,-0.105,0.265
290.67,-0.105,0.215
290.68,-0.1,0.21
290.68,-0.105,0.19
290.68,-0.105,0.17
290.69,-0.115,0.145
290.69,-0.135,0.115
290.69,-0.145,0.09
290.69,-0.145,0.08
290.7,-0.145,0.075
290.7,-0.135,0.06
290.7,-0.13,0.055
290.71,-0.13,0.025
290.71,-0.145,0.005
290.71,-0.155,0.005
290.71,-0.145,0.015
290.72,-0.14,0.01
290.72,-0.15,-0.01
290.72,-0.155,-0.015
290.72,-0.16,-0.04
290.73,-0.17,-0.035
290.73,-0.175,-0.02
290.73,-0.175,-0.025
290.74,-0.15,-0.015
290.74,-0.16,-0.025
290.74,-0.16,-0.04
290.74,-0.16,-0.03
290.75,-0.16,-0.03
290.75,-0.14,-0.03
290.75,-0.15,-0.02
290.76,-0.135,-0.02
290.76,-0.155,-0.04
290.76,-0.16,-0.035
290.76,-0.155,-0.035
290.77,-0.15,-0.025
290.77,-0.15,-0.035
290.77,-0.155,-0.04
290.77,-0.165,-0.05
290.78,-0.165,-0.045
290.78,-0.165,-0.04
290.78,-0.155,-0.03
290.79,-0.16,-0.03
290.79,-0.15,-0.035
290.79,-0.165,-0.045
290.79,-0.17,-0.05
290.8,-0.165,-0.035
290.8,-0.15,-0.02
290.8,-0.16,-0.03
290.81,-0.16,-0.05
290.81,-0.165,-0.05
290.81,-0.17,-0.045
290.81,-0.17,-0.04
290.82,-0.17,-0.04
290.82,-0.155,-0.04
290.82,-0.16,-0.065
290.82,-0.18,-0.065
290.83,-0.18,-0.06
290.83,-0.18,-0.045
290.83,-0.16,-0.05
290.84,-0.17,-0.055
290.84,-0.19,-0.075
290.84,-0.185,-0.07
290.84,-0.195,-0.075
290.85,-0.195,-0.075
290.85,-0.185,-0.075
290.85,-0.185,-0.08
290.86,-0.195,-0.095
290.86,-0.195,-0.11
290.86,-0.2,-0.1
290.86,-0.205,-0.105
290.87,-0.175,-0.095
290.87,-0.185,-0.11
290.87,-0.205,-0.115
290.88,-0.21,-0.135
290.88,-0.22,-0.13
290.88,-0.205,-0.12
290.88,-0.2,-0.12
290.89,-0.2,-0.12
290.89,-0.195,-0.125
290.89,-0.22,-0.145
290.89,-0.22,-0.15
290.9,-0.225,-0.145
290.9,-0.21,-0.14
290.9,-0.21,-0.15
290.91,-0.225,-0.155
290.91,-0.225,-0.175
290.91,-0.22,-0.17
290.91,-0.225,-0.16
290.92,-0.22,-0.155
290.92,-0.225,-0.155
290.92,-0.235,-0.18
290.92,-0.23,-0.175
290.93,-0.24,-0.185
290.93,-0.235,-0.175
290.93,-0.23,-0.175
290.94,-0.23,-0.175
290.94,-0.23,-0.18
290.94,-0.235,-0.195
290.94,-0.24,-0.195
290.95,-0.23,-0.185
290.95,-0.225,-0.185
290.95,-0.22,-0.185
290.96,-0.23,-0.205
290.96,-0.235,-0.2
290.96,-0.24,-0.2
290.96,-0.23,-0.19
290.97,-0.23,-0.19
290.97,-0.23,-0.2
290.97,-0.235,-0.195
290.97,-0.245,-0.205
290.98,-0.245,-0.2
290.98,-0.23,-0.195
290.98,-0.22,-0.2
290.99,-0.23,-0.195
290.99,-0.235,-0.205
290.99,-0.25,-0.22
290.99,-0.245,-0.215
291,-0.24,-0.21
291,-0.23,-0.195
291,-0.24,-0.205
291.01,-0.245,-0.21
291.01,-0.245,-0.23
291.01,-0.265,-0.21
291.01,-0.245,-0.22
291.02,-0.235,-0.21
291.02,-0.245,-0.205
291.02,-0.24,-0.215
291.02,-0.25,-0.215
291.03,-0.245,-0.21
291.03,-0.24,-0.205
291.03,-0.235,-0.195
291.04,-0.235,-0.195
291.04,-0.245,-0.19
291.04,-0.245,-0.205
291.04,-0.245,-0.21
291.05,-0.255,-0.195
291.05,-0.235,-0.195
291.05,-0.24,-0.195
291.06,-0.245,-0.195
291.06,-0.255,-0.205
291.06,-0.245,-0.19
291.06,-0.23,-0.165
291.07,-0.215,-0.14
291.07,-0.21,-0.12
291.07,-0.2,-0.065
291.07,-0.2,0.095
291.08,-0.19,0.45
291.08,-0.145,0.76
291.08,-0.1,0.725
291.09,0.015,0.475
291.09,0.255,0.3
291.09,0.61,0.245
291.09,0.8,0.215
291.1,0.68,0.18
291.1,0.4,0.145
291.1,0.23,0.12
291.11,0.185,0.075
291.11,0.215,-0.005
291.11,0.23,-0.1
291.11,0.255,-0.24
291.12,0.275,-0.385
291.12,0.285,-0.6
291.12,0.28,-0.855
291.12,0.28,-1.085
291.13,0.285,-1.315
291.13,0.295,-1.535
291.13,0.305,-1.76
291.14,0.305,-1.965
291.14,0.285,-2.13
291.14,0.28,-2.28
291.14,0.28,-2.395
291.15,0.29,-2.46
291.15,0.28,-2.53
291.15,0.27,-2.63
291.16,0.245,-2.75
291.16,0.21,-2.845
291.16,0.185,-2.915
291.16,0.145,-2.945
291.17,0.095,-2.965
291.17,0.06,-2.99
291.17,0.035,-3.015
291.17,-0.01,-3.03
291.18,-0.08,-3.045
291.18,-0.16,-3.035
291.18,-0.23,-3.035
291.19,-0.285,-3.05
291.19,-0.295,-3.04
291.19,-0.285,-3.04
291.19,-0.255,-3.03
291.2,-0.215,-3
291.2,-0.205,-2.97
291.2,-0.21,-2.915
291.21,-0.235,-2.86
291.21,-0.26,-2.79
291.21,-0.31,-2.675
291.21,-0.34,-2.555
291.22,-0.335,-2.43
291.22,-0.335,-2.29
291.22,-0.335,-2.16
291.22,-0.34,-1.97
291.23,-0.36,-1.74
291.23,-0.335,-1.535
291.23,-0.35,-1.335
291.24,-0.35,-1.155
291.24,-0.35,-0.96
291.24,-0.36,-0.785
291.24,-0.37,-0.585
291.25,-0.38,-0.39
291.25,-0.38,-0.23
291.25,-0.395,-0.085
291.26,-0.41,0.05
291.26,-0.43,0.185
291.26,-0.44,0.315
291.26,-0.415,0.435
291.27,-0.395,0.53
291.27,-0.4,0.59
291.27,-0.4,0.63
291.27,-0.41,0.67
291.28,-0.42,0.715
291.28,-0.405,0.755
291.28,-0.4,0.805
291.29,-0.39,0.835
291.29,-0.39,0.865
291.29,-0.405,0.88
291.29,-0.405,0.925
291.3,-0.4,0.965
291.3,-0.385,0.99
291.3,-0.38,1.03
291.31,-0.39,1.045
291.31,-0.39,1.06
291.31,-0.4,1.105
291.31,-0.375,1.15
291.32,-0.37,1.185
291.32,-0.37,1.225
291.32,-0.365,1.24
291.32,-0.375,1.275
291.33,-0.385,1.305
291.33,-0.375,1.345
291.33,-0.37,1.385
291.34,-0.37,1.425
291.34,-0.365,1.46
291.34,-0.39,1.47
291.34,-0.385,1.52
291.35,-0.37,1.555
291.35,-0.365,1.59
291.35,-0.37,1.625
291.36,-0.37,1.635
291.36,-0.38,1.66
291.36,-0.385,1.705
291.36,-0.385,1.735
291.37,-0.355,1.77
291.37,-0.34,1.785
291.37,-0.365,1.81
291.38,-0.36,1.815
291.38,-0.35,1.84
291.38,-0.345,1.87
291.38,-0.325,1.89
291.39,-0.325,1.89
291.39,-0.32,1.895
291.39,-0.33,1.89
291.39,-0.33,1.9
291.4,-0.305,1.905
291.4,-0.285,1.9
291.4,-0.27,1.895
291.41,-0.275,1.87
291.41,-0.265,1.85
291.41,-0.255,1.83
291.41,-0.245,1.82
291.42,-0.235,1.805
291.42,-0.23,1.76
291.42,-0.215,1.72
291.42,-0.225,1.66
291.43,-0.215,1.625
291.43,-0.2,1.585
291.43,-0.185,1.54
291.44,-0.18,1.49
291.44,-0.175,1.425
291.44,-0.175,1.365
291.44,-0.185,1.305
291.45,-0.16,1.26
291.45,-0.15,1.21
291.45,-0.155,1.15
291.46,-0.15,1.08
291.46,-0.145,1.01
291.46,-0.155,0.95
291.46,-0.14,0.895
291.47,-0.125,0.835
291.47,-0.135,0.79
291.47,-0.135,0.74
291.47,-0.155,0.665
291.48,-0.15,0.62
291.48,-0.15,0.57
291.48,-0.14,0.545
291.49,-0.145,0.495
291.49,-0.155,0.435
291.49,-0.16,0.405
291.49,-0.175,0.38
291.5,-0.16,0.345
291.5,-0.16,0.32
291.5,-0.16,0.28
291.51,-0.165,0.245
291.51,-0.18,0.21
291.51,-0.19,0.2
291.51,-0.18,0.18
291.52,-0.175,0.175
291.52,-0.185,0.145
291.52,-0.195,0.11
291.52,-0.19,0.09
291.53,-0.2,0.085
291.53,-0.195,0.085
291.53,-0.195,0.065
291.54,-0.185,0.055
291.54,-0.195,0.025
291.54,-0.22,0.02
291.54,-0.21,0.01
291.55,-0.2,0.02
291.55,-0.195,0.01
291.55,-0.19,0
291.56,-0.2,0.005
291.56,-0.22,-0.02
291.56,-0.21,-0.02
291.56,-0.205,-0.015
291.57,-0.205,-0.015
291.57,-0.195,-0.03
291.57,-0.2,-0.035
291.57,-0.205,-0.05
291.58,-0.215,-0.04
291.58,-0.2,-0.04
291.58,-0.205,-0.02
291.59,-0.195,-0.025
291.59,-0.205,-0.045
291.59,-0.21,-0.04
291.59,-0.215,-0.04
291.6,-0.2,-0.025
291.6,-0.2,-0.02
291.6,-0.2,-0.03
291.61,-0.205,-0.035
291.61,-0.215,-0.045
291.61,-0.2,-0.045
291.61,-0.21,-0.035
291.62,-0.19,-0.03
291.62,-0.195,-0.03
291.62,-0.2,-0.045
291.62,-0.2,-0.045
291.63,-0.215,-0.035
291.63,-0.21,-0.035
291.63,-0.2,-0.01
291.64,-0.195,-0.015
291.64,-0.2,-0.04
291.64,-0.205,-0.05
291.64,-0.21,-0.03
291.65,-0.21,-0.025
291.65,-0.2,-0.025
291.65,-0.195,-0.03
291.66,-0.205,-0.03
291.66,-0.2,-0.045
291.66,-0.22,-0.045
291.66,-0.21,-0.035
291.67,-0.205,-0.03
291.67,-0.205,-0.035
291.67,-0.22,-0.05
291.67,-0.225,-0.065
291.68,-0.225,-0.07
291.68,-0.215,-0.06
291.68,-0.21,-0.055
291.69,-0.21,-0.06
291.69,-0.225,-0.065
291.69,-0.225,-0.085
291.69,-0.235,-0.08
291.7,-0.23,-0.075
291.7,-0.23,-0.075
291.7,-0.225,-0.09
291.71,-0.23,-0.09
291.71,-0.235,-0.11
291.71,-0.25,-0.105
291.71,-0.235,-0.105
291.72,-0.24,-0.095
291.72,-0.24,-0.11
291.72,-0.24,-0.115
291.72,-0.235,-0.135
291.73,-0.255,-0.13
291.73,-0.245,-0.12
291.73,-0.24,-0.13
291.74,-0.235,-0.13
291.74,-0.245,-0.14
291.74,-0.255,-0.145
291.74,-0.255,-0.15
291.75,-0.255,-0.145
291.75,-0.24,-0.135
291.75,-0.235,-0.145
291.76,-0.25,-0.155
291.76,-0.26,-0.16
291.76,-0.265,-0.16
291.76,-0.255,-0.17
291.77,-0.24,-0.155
291.77,-0.245,-0.16
291.77,-0.245,-0.175
291.77,-0.26,-0.185
291.78,-0.26,-0.185
291.78,-0.265,-0.175
291.78,-0.25,-0.17
291.79,-0.255,-0.18
291.79,-0.25,-0.185
291.79,-0.26,-0.195
291.79,-0.265,-0.185
291.8,-0.255,-0.185
291.8,-0.26,-0.18
291.8,-0.245,-0.185
291.81,-0.245,-0.19
291.81,-0.265,-0.195
291.81,-0.26,-0.195
291.81,-0.25,-0.18
291.82,-0.25,-0.19
291.82,-0.25,-0.2
291.82,-0.255,-0.21
291.82,-0.26,-0.21
291.83,-0.265,-0.215
291.83,-0.255,-0.195
291.83,-0.255,-0.195
291.84,-0.26,-0.195
291.84,-0.27,-0.205
291.84,-0.27,-0.215
291.84,-0.255,-0.215
291.85,-0.265,-0.195
291.85,-0.27,-0.2
291.85,-0.26,-0.19
291.86,-0.275,-0.195
291.86,-0.275,-0.215
291.86,-0.28,-0.2
291.86,-0.27,-0.2
291.87,-0.265,-0.205
291.87,-0.265,-0.205
291.87,-0.26,-0.205
291.88,-0.28,-0.225
291.88,-0.27,-0.205
291.88,-0.27,-0.195
291.88,-0.265,-0.185
291.89,-0.255,-0.18
291.89,-0.255,-0.19
291.89,-0.265,-0.185
291.89,-0.265,-0.175
291.9,-0.26,-0.16
291.9,-0.25,-0.15
291.9,-0.255,-0.15
291.91,-0.255,-0.155
291.91,-0.255,-0.16
291.91,-0.25,-0.155
291.91,-0.26,-0.155
291.92,-0.24,-0.15
291.92,-0.235,-0.16
291.92,-0.23,-0.185
291.92,-0.225,-0.19
291.93,-0.225,-0.17
291.93,-0.205,-0.145
291.93,-0.195,-0.1
291.94,-0.18,0
291.94,-0.17,0.265
291.94,-0.14,0.605
291.94,-0.12,0.77
291.95,-0.07,0.605
291.95,0.045,0.36
291.95,0.32,0.22
291.96,0.66,0.155
291.96,0.815,0.12
291.96,0.66,0.08
291.96,0.395,0.06
291.97,0.23,0.03
291.97,0.19,0
291.97,0.205,-0.05
291.97,0.2,-0.135
291.98,0.195,-0.23
291.98,0.215,-0.355
291.98,0.235,-0.535
291.99,0.23,-0.765
291.99,0.235,-0.975
291.99,0.23,-1.21
291.99,0.225,-1.43
292,0.24,-1.675
292,0.245,-1.87
292,0.245,-2.035
292.01,0.25,-2.19
292.01,0.245,-2.32
292.01,0.26,-2.42
292.01,0.285,-2.485
292.02,0.29,-2.55
292.02,0.28,-2.66
292.02,0.27,-2.76
292.02,0.255,-2.84
292.03,0.23,-2.89
292.03,0.205,-2.915
292.03,0.145,-2.925
292.04,0.11,-2.945
292.04,0.09,-2.97
292.04,0.055,-2.985
292.04,-0.01,-2.995
292.05,-0.08,-3
292.05,-0.15,-3.01
292.05,-0.195,-3.015
292.06,-0.225,-3.02
292.06,-0.215,-3.025
292.06,-0.185,-3.015
292.06,-0.16,-3.01
292.07,-0.14,-2.99
292.07,-0.155,-2.955
292.07,-0.18,-2.915
292.07,-0.22,-2.87
292.08,-0.265,-2.81
292.08,-0.295,-2.705
292.08,-0.315,-2.595
292.09,-0.33,-2.505
292.09,-0.355,-2.41
292.09,-0.36,-2.305
292.09,-0.365,-2.135
292.1,-0.365,-1.945
292.1,-0.36,-1.745
292.1,-0.355,-1.53
292.11,-0.375,-1.34
292.11,-0.385,-1.15
292.11,-0.39,-0.925
292.11,-0.375,-0.725
292.12,-0.38,-0.53
292.12,-0.385,-0.35
292.12,-0.405,-0.185
292.12,-0.415,-0.055
292.13,-0.425,0.1
292.13,-0.43,0.22
292.13,-0.42,0.36
292.14,-0.41,0.47
292.14,-0.41,0.55
292.14,-0.4,0.61
292.14,-0.41,0.67
292.15,-0.405,0.73
292.15,-0.385,0.775
292.15,-0.39,0.81
292.16,-0.38,0.825
292.16,-0.395,0.86
292.16,-0.395,0.905
292.16,-0.39,0.935
292.17,-0.37,0.975
292.17,-0.38,1.005
292.17,-0.37,1.035
292.17,-0.37,1.055
292.18,-0.38,1.095
292.18,-0.37,1.13
292.18,-0.375,1.175
292.19,-0.37,1.2
292.19,-0.37,1.23
292.19,-0.38,1.245
292.19,-0.37,1.28
292.2,-0.365,1.32
292.2,-0.365,1.35
292.2,-0.365,1.38
292.21,-0.36,1.405
292.21,-0.36,1.425
292.21,-0.37,1.465
292.21,-0.38,1.505
292.22,-0.37,1.54
292.22,-0.36,1.56
292.22,-0.365,1.58
292.22,-0.37,1.605
292.23,-0.37,1.635
292.23,-0.365,1.68
292.23,-0.355,1.71
292.24,-0.355,1.74
292.24,-0.365,1.755
292.24,-0.365,1.78
292.24,-0.365,1.81
292.25,-0.345,1.835
292.25,-0.325,1.87
292.25,-0.32,1.88
292.26,-0.32,1.88
292.26,-0.315,1.895
292.26,-0.31,1.905
292.26,-0.305,1.93
292.27,-0.295,1.94
292.27,-0.295,1.93
292.27,-0.29,1.92
292.27,-0.29,1.91
292.28,-0.295,1.91
292.28,-0.285,1.9
292.28,-0.26,1.885
292.29,-0.245,1.85
292.29,-0.245,1.82
292.29,-0.26,1.78
292.29,-0.245,1.745
292.3,-0.225,1.72
292.3,-0.21,1.68
292.3,-0.205,1.635
292.31,-0.205,1.57
292.31,-0.2,1.515
292.31,-0.205,1.465
292.31,-0.19,1.42
292.32,-0.185,1.37
292.32,-0.18,1.315
292.32,-0.18,1.235
292.32,-0.195,1.18
292.33,-0.195,1.125
292.33,-0.17,1.075
292.33,-0.16,1.025
292.34,-0.165,0.965
292.34,-0.175,0.895
292.34,-0.165,0.84
292.34,-0.175,0.785
292.35,-0.155,0.74
292.35,-0.145,0.705
292.35,-0.145,0.655
292.36,-0.165,0.585
292.36,-0.17,0.52
292.36,-0.175,0.485
292.36,-0.175,0.46
292.37,-0.165,0.425
292.37,-0.165,0.39
292.37,-0.165,0.345
292.38,-0.19,0.315
292.38,-0.195,0.285
292.38,-0.19,0.265
292.38,-0.19,0.25
292.39,-0.195,0.215
292.39,-0.205,0.195
292.39,-0.21,0.165
292.39,-0.21,0.16
292.4,-0.21,0.14
292.4,-0.205,0.13
292.4,-0.205,0.1
292.41,-0.205,0.085
292.41,-0.21,0.065
292.41,-0.225,0.05
292.41,-0.215,0.05
292.42,-0.225,0.035
292.42,-0.215,0.03
292.42,-0.225,0.01
292.42,-0.235,0
292.43,-0.225,-0.005
292.43,-0.225,0
292.43,-0.22,-0.005
292.44,-0.22,-0.005
292.44,-0.235,-0.03
292.44,-0.225,-0.035
292.44,-0.235,-0.04
292.45,-0.215,-0.025
292.45,-0.225,-0.035
292.45,-0.215,-0.03
292.46,-0.215,-0.055
292.46,-0.235,-0.07
292.46,-0.23,-0.055
292.46,-0.225,-0.055
292.47,-0.215,-0.05
292.47,-0.22,-0.055
292.47,-0.225,-0.065
292.47,-0.235,-0.07
292.48,-0.245,-0.06
292.48,-0.24,-0.05
292.48,-0.23,-0.045
292.49,-0.235,-0.055
292.49,-0.25,-0.07
292.49,-0.24,-0.06
292.49,-0.235,-0.06
292.5,-0.235,-0.05
292.5,-0.215,-0.045
292.5,-0.21,-0.045
292.51,-0.22,-0.055
292.51,-0.235,-0.065
292.51,-0.245,-0.06
292.51,-0.24,-0.055
292.52,-0.24,-0.035
292.52,-0.235,-0.045
292.52,-0.23,-0.065
292.52,-0.24,-0.07
292.53,-0.25,-0.055
292.53,-0.24,-0.05
292.53,-0.235,-0.045
292.54,-0.235,-0.045
292.54,-0.23,-0.06
292.54,-0.23,-0.06
292.54,-0.235,-0.06
292.55,-0.23,-0.045
292.55,-0.235,-0.045
292.55,-0.235,-0.055
292.56,-0.235,-0.065
292.56,-0.255,-0.075
292.56,-0.25,-0.075
292.56,-0.235,-0.065
292.57,-0.235,-0.07
292.57,-0.235,-0.07
292.57,-0.25,-0.095
292.57,-0.255,-0.095
292.58,-0.26,-0.08
292.58,-0.25,-0.09
292.58,-0.255,-0.09
292.59,-0.245,-0.09
292.59,-0.26,-0.11
292.59,-0.265,-0.115
292.59,-0.28,-0.115
292.6,-0.275,-0.105
292.6,-0.27,-0.11
292.6,-0.27,-0.105
292.61,-0.27,-0.125
292.61,-0.27,-0.14
292.61,-0.275,-0.14
292.61,-0.275,-0.125
292.62,-0.28,-0.125
292.62,-0.27,-0.13
292.62,-0.275,-0.14
292.62,-0.285,-0.165
292.63,-0.275,-0.155
292.63,-0.275,-0.16
292.63,-0.27,-0.145
292.64,-0.255,-0.155
292.64,-0.27,-0.16
292.64,-0.27,-0.19
292.64,-0.27,-0.18
292.65,-0.28,-0.165
292.65,-0.265,-0.165
292.65,-0.275,-0.185
292.66,-0.285,-0.185
292.66,-0.295,-0.2
292.66,-0.3,-0.195
292.66,-0.295,-0.19
292.67,-0.29,-0.175
292.67,-0.28,-0.18
292.67,-0.29,-0.2
292.67,-0.3,-0.2
292.68,-0.29,-0.2
292.68,-0.285,-0.2
292.68,-0.275,-0.195
292.69,-0.28,-0.19
292.69,-0.285,-0.2
292.69,-0.295,-0.215
292.69,-0.3,-0.205
292.7,-0.295,-0.205
292.7,-0.29,-0.195
292.7,-0.305,-0.195
292.71,-0.315,-0.21
292.71,-0.32,-0.215
292.71,-0.315,-0.21
292.71,-0.295,-0.195
292.72,-0.295,-0.17
292.72,-0.285,-0.165
292.72,-0.29,-0.165
292.72,-0.29,-0.19
292.73,-0.295,-0.165
292.73,-0.28,-0.16
292.73,-0.265,-0.15
292.74,-0.28,-0.15
292.74,-0.27,-0.175
292.74,-0.28,-0.19
292.74,-0.28,-0.19
292.75,-0.27,-0.2
292.75,-0.265,-0.2
292.75,-0.255,-0.2
292.76,-0.25,-0.21
292.76,-0.265,-0.22
292.76,-0.27,-0.225
292.76,-0.25,-0.215
292.77,-0.24,-0.22
292.77,-0.22,-0.245
292.77,-0.225,-0.25
292.77,-0.25,-0.27
292.78,-0.25,-0.265
292.78,-0.255,-0.27
292.78,-0.24,-0.26
292.79,-0.24,-0.25
292.79,-0.245,-0.255
292.79,-0.24,-0.22
292.79,-0.24,-0.13
292.8,-0.21,0.1
292.8,-0.185,0.46
292.8,-0.17,0.705
292.81,-0.125,0.62
292.81,-0.02,0.36
292.81,0.25,0.215
292.81,0.62,0.175
292.82,0.805,0.15
292.82,0.64,0.11
292.82,0.35,0.06
292.82,0.175,0.035
292.83,0.125,-0.005
292.83,0.16,-0.06
292.83,0.17,-0.145
292.84,0.185,-0.295
292.84,0.18,-0.465
292.84,0.195,-0.67
292.84,0.195,-0.905
292.85,0.22,-1.105
292.85,0.24,-1.335
292.85,0.25,-1.56
292.86,0.25,-1.8
292.86,0.255,-1.975
292.86,0.255,-2.11
292.86,0.295,-2.19
292.87,0.325,-2.26
292.87,0.33,-2.345
292.87,0.335,-2.42
292.88,0.31,-2.505
292.88,0.32,-2.605
292.88,0.335,-2.69
292.88,0.335,-2.755
292.89,0.315,-2.83
292.89,0.265,-2.875
292.89,0.225,-2.91
292.89,0.18,-2.94
292.9,0.145,-2.96
292.9,0.095,-2.965
292.9,0.015,-3
292.91,-0.09,-3.02
292.91,-0.175,-3.03
292.91,-0.235,-3.04
292.91,-0.235,-3.04
292.92,-0.21,-3.025
292.92,-0.21,-3.03
292.92,-0.23,-3.025
292.92,-0.26,-3.01
292.93,-0.305,-2.97
292.93,-0.325,-2.905
292.93,-0.365,-2.82
292.94,-0.4,-2.72
292.94,-0.43,-2.615
292.94,-0.45,-2.5
292.94,-0.455,-2.345
292.95,-0.43,-2.175
292.95,-0.4,-1.97
292.95,-0.405,-1.765
292.96,-0.41,-1.555
292.96,-0.425,-1.36
292.96,-0.425,-1.13
292.96,-0.4,-0.945
292.97,-0.39,-0.725
292.97,-0.4,-0.55
292.97,-0.415,-0.395
292.97,-0.44,-0.225
292.98,-0.46,-0.075
292.98,-0.46,0.07
292.98,-0.45,0.205
292.99,-0.445,0.32
292.99,-0.43,0.415
292.99,-0.41,0.495
292.99,-0.405,0.575
293,-0.38,0.635
293,-0.375,0.675
293,-0.37,0.71
293.01,-0.37,0.74
293.01,-0.39,0.78
293.01,-0.38,0.815
293.01,-0.37,0.865
293.02,-0.375,0.895
293.02,-0.38,0.91
293.02,-0.38,0.95
293.02,-0.37,0.97
293.03,-0.36,1.015
293.03,-0.33,1.055
293.03,-0.32,1.09
293.04,-0.33,1.12
293.04,-0.345,1.14
293.04,-0.35,1.17
293.04,-0.36,1.22
293.05,-0.36,1.26
293.05,-0.35,1.305
293.05,-0.35,1.34
293.06,-0.335,1.36
293.06,-0.345,1.39
293.06,-0.335,1.435
293.06,-0.32,1.475
293.07,-0.295,1.505
293.07,-0.285,1.56
293.07,-0.295,1.58
293.07,-0.305,1.615
293.08,-0.31,1.655
293.08,-0.305,1.68
293.08,-0.295,1.71
293.09,-0.295,1.745
293.09,-0.295,1.77
293.09,-0.305,1.775
293.09,-0.29,1.805
293.1,-0.285,1.845
293.1,-0.265,1.865
293.1,-0.265,1.875
293.11,-0.265,1.875
293.11,-0.27,1.87
293.11,-0.28,1.885
293.11,-0.25,1.9
293.12,-0.215,1.905
293.12,-0.22,1.9
293.12,-0.2,1.88
293.12,-0.2,1.86
293.13,-0.205,1.835
293.13,-0.19,1.815
293.13,-0.185,1.795
293.14,-0.18,1.755
293.14,-0.16,1.715
293.14,-0.165,1.66
293.14,-0.16,1.63
293.15,-0.15,1.57
293.15,-0.135,1.535
293.15,-0.125,1.465
293.16,-0.14,1.405
293.16,-0.145,1.345
293.16,-0.15,1.285
293.16,-0.155,1.225
293.17,-0.15,1.18
293.17,-0.145,1.1
293.17,-0.15,1.03
293.17,-0.14,0.95
293.18,-0.15,0.885
293.18,-0.14,0.845
293.18,-0.13,0.795
293.19,-0.125,0.73
293.19,-0.14,0.66
293.19,-0.145,0.6
293.19,-0.16,0.555
293.2,-0.155,0.535
293.2,-0.155,0.485
293.2,-0.155,0.43
293.21,-0.15,0.38
293.21,-0.155,0.335
293.21,-0.165,0.29
293.21,-0.16,0.27
293.22,-0.155,0.24
293.22,-0.17,0.21
293.22,-0.175,0.18
293.22,-0.2,0.15
293.23,-0.195,0.125
293.23,-0.205,0.12
293.23,-0.2,0.09
293.24,-0.21,0.07
293.24,-0.2,0.055
293.24,-0.23,0.025
293.24,-0.225,0.005
293.25,-0.235,0
293.25,-0.225,0.005
293.25,-0.24,-0.015
293.26,-0.235,-0.045
293.26,-0.225,-0.05
293.26,-0.225,-0.05
293.26,-0.21,-0.045
293.27,-0.22,-0.07
293.27,-0.2,-0.065
293.27,-0.195,-0.08
293.27,-0.215,-0.1
293.28,-0.21,-0.095
293.28,-0.21,-0.09
293.28,-0.215,-0.08
293.29,-0.23,-0.095
293.29,-0.25,-0.105
293.29,-0.25,-0.115
293.29,-0.235,-0.11
293.3,-0.22,-0.115
293.3,-0.195,-0.11
293.3,-0.21,-0.1
293.31,-0.225,-0.12
293.31,-0.225,-0.13
293.31,-0.23,-0.125
293.31,-0.22,-0.115
293.32,-0.22,-0.115
293.32,-0.23,-0.125
293.32,-0.24,-0.125
293.32,-0.21,-0.13
293.33,-0.225,-0.125
293.33,-0.225,-0.115
293.33,-0.225,-0.125
293.34,-0.22,-0.115
293.34,-0.245,-0.13
293.34,-0.235,-0.125
293.34,-0.245,-0.11
293.35,-0.24,-0.11
293.35,-0.225,-0.105
293.35,-0.23,-0.105
293.36,-0.235,-0.115
293.36,-0.26,-0.11
293.36,-0.265,-0.1
293.36,-0.255,-0.1
293.37,-0.245,-0.095
293.37,-0.25,-0.095
293.37,-0.25,-0.1
293.38,-0.255,-0.11
293.38,-0.26,-0.105
293.38,-0.275,-0.095
293.38,-0.26,-0.095
293.39,-0.255,-0.095
293.39,-0.27,-0.115
293.39,-0.27,-0.11
293.39,-0.275,-0.11
293.4,-0.275,-0.11
293.4,-0.27,-0.125
293.4,-0.27,-0.115
293.41,-0.275,-0.12
293.41,-0.27,-0.13
293.41,-0.285,-0.125
293.41,-0.275,-0.12
293.42,-0.265,-0.13
293.42,-0.275,-0.125
293.42,-0.275,-0.14
293.42,-0.275,-0.145
293.43,-0.285,-0.15
293.43,-0.275,-0.14
293.43,-0.27,-0.14
293.44,-0.275,-0.155
293.44,-0.285,-0.165
293.44,-0.285,-0.17
293.44,-0.29,-0.17
293.45,-0.285,-0.175
293.45,-0.285,-0.155
293.45,-0.27,-0.18
293.46,-0.29,-0.18
293.46,-0.29,-0.18
293.46,-0.3,-0.19
293.46,-0.285,-0.19
293.47,-0.275,-0.185
293.47,-0.285,-0.18
293.47,-0.285,-0.2
293.47,-0.3,-0.195
293.48,-0.305,-0.205
293.48,-0.295,-0.19
293.48,-0.285,-0.205
293.49,-0.285,-0.185
293.49,-0.3,-0.2
293.49,-0.315,-0.215
293.49,-0.31,-0.22
293.5,-0.3,-0.19
293.5,-0.305,-0.185
293.5,-0.305,-0.185
293.51,-0.315,-0.2
293.51,-0.315,-0.21
293.51,-0.32,-0.21
293.51,-0.315,-0.195
293.52,-0.31,-0.19
293.52,-0.305,-0.175
293.52,-0.305,-0.19
293.52,-0.315,-0.19
293.53,-0.315,-0.19
293.53,-0.3,-0.165
293.53,-0.295,-0.16
293.54,-0.29,-0.16
293.54,-0.295,-0.165
293.54,-0.315,-0.185
293.54,-0.31,-0.185
293.55,-0.295,-0.18
293.55,-0.285,-0.195
293.55,-0.285,-0.2
293.56,-0.285,-0.22
293.56,-0.285,-0.22
293.56,-0.29,-0.225
293.56,-0.27,-0.225
293.57,-0.285,-0.245
293.57,-0.26,-0.245
293.57,-0.27,-0.26
293.57,-0.285,-0.285
293.58,-0.3,-0.28
293.58,-0.3,-0.28
293.58,-0.285,-0.285
293.59,-0.285,-0.28
293.59,-0.285,-0.29
293.59,-0.285,-0.28
293.59,-0.285,-0.25
293.6,-0.28,-0.23
293.6,-0.295,-0.21
293.6,-0.295,-0.225
293.61,-0.305,-0.22
293.61,-0.295,-0.215
293.61,-0.3,-0.16
293.61,-0.28,-0.025
293.62,-0.255,0.26
293.62,-0.225,0.675
293.62,-0.19,0.805
293.62,-0.14,0.605
293.63,0.05,0.325
293.63,0.415,0.205
293.63,0.72,0.185
293.64,0.68,0.16
293.64,0.38,0.11
293.64,0.115,0.075
293.64,0.045,0.04
293.65,0.075,0.005
293.65,0.11,-0.095
293.65,0.145,-0.25
293.66,0.135,-0.435
293.66,0.15,-0.64
293.66,0.155,-0.865
293.66,0.2,-1.06
293.67,0.23,-1.27
293.67,0.225,-1.5
293.67,0.22,-1.7
293.67,0.215,-1.835
293.68,0.235,-1.935
293.68,0.275,-2.03
293.68,0.32,-2.105
293.69,0.31,-2.205
293.69,0.32,-2.32
293.69,0.3,-2.465
293.69,0.305,-2.585
293.7,0.3,-2.675
293.7,0.275,-2.73
293.7,0.235,-2.79
293.71,0.17,-2.845
293.71,0.125,-2.895
293.71,0.075,-2.925
293.71,0.01,-2.935
293.72,-0.085,-2.96
293.72,-0.18,-2.985
293.72,-0.25,-3.005
293.72,-0.265,-3.015
293.73,-0.27,-3.025
293.73,-0.245,-3.015
293.73,-0.245,-2.995
293.74,-0.26,-2.97
293.74,-0.305,-2.935
293.74,-0.34,-2.88
293.74,-0.38,-2.78
293.75,-0.41,-2.665
293.75,-0.44,-2.555
293.75,-0.445,-2.435
293.76,-0.45,-2.295
293.76,-0.445,-2.13
293.76,-0.44,-1.91
293.76,-0.43,-1.685
293.77,-0.435,-1.46
293.77,-0.435,-1.235
293.77,-0.45,-1.02
293.77,-0.45,-0.82
293.78,-0.445,-0.595
293.78,-0.45,-0.395
293.78,-0.455,-0.235
293.79,-0.47,-0.08
293.79,-0.48,0.04
293.79,-0.5,0.165
293.79,-0.505,0.305
293.8,-0.475,0.415
293.8,-0.455,0.515
293.8,-0.45,0.565
293.81,-0.455,0.61
293.81,-0.46,0.655
293.81,-0.47,0.695
293.81,-0.45,0.745
293.82,-0.44,0.785
293.82,-0.44,0.805
293.82,-0.445,0.845
293.82,-0.445,0.86
293.83,-0.44,0.915
293.83,-0.445,0.955
293.83,-0.425,0.995
293.84,-0.44,1.04
293.84,-0.445,1.05
293.84,-0.445,1.09
293.84,-0.44,1.13
293.85,-0.445,1.165
293.85,-0.43,1.2
293.85,-0.415,1.24
293.86,-0.43,1.26
293.86,-0.435,1.305
293.86,-0.43,1.35
293.86,-0.415,1.4
293.87,-0.4,1.44
293.87,-0.41,1.46
293.87,-0.415,1.495
293.88,-0.42,1.51
293.88,-0.41,1.55
293.88,-0.4,1.595
293.88,-0.4,1.635
293.89,-0.395,1.66
293.89,-0.405,1.68
293.89,-0.42,1.695
293.89,-0.42,1.74
293.9,-0.4,1.77
293.9,-0.385,1.795
293.9,-0.38,1.82
293.91,-0.375,1.825
293.91,-0.38,1.83
293.91,-0.375,1.84
293.91,-0.365,1.865
293.92,-0.35,1.865
293.92,-0.34,1.86
293.92,-0.345,1.84
293.92,-0.34,1.815
293.93,-0.34,1.81
293.93,-0.325,1.795
293.93,-0.3,1.785
293.94,-0.305,1.74
293.94,-0.295,1.705
293.94,-0.305,1.655
293.94,-0.295,1.61
293.95,-0.285,1.58
293.95,-0.27,1.525
293.95,-0.275,1.475
293.96,-0.265,1.415
293.96,-0.265,1.345
293.96,-0.27,1.275
293.96,-0.25,1.225
293.97,-0.24,1.165
293.97,-0.24,1.095
293.97,-0.245,1.02
293.97,-0.25,0.945
293.98,-0.25,0.89
293.98,-0.24,0.84
293.98,-0.24,0.78
293.99,-0.24,0.715
293.99,-0.24,0.645
293.99,-0.25,0.59
293.99,-0.26,0.54
294,-0.255,0.51
294,-0.25,0.46
294,-0.26,0.405
294.01,-0.25,0.37
294.01,-0.265,0.32
294.01,-0.27,0.285
294.01,-0.265,0.26
294.02,-0.265,0.225
294.02,-0.27,0.2
294.02,-0.28,0.165
294.02,-0.295,0.135
294.03,-0.305,0.11
294.03,-0.3,0.1
294.03,-0.3,0.085
294.04,-0.29,0.065
294.04,-0.31,0.04
294.04,-0.32,0.03
294.04,-0.315,0.005
294.05,-0.31,0.01
294.05,-0.3,-0.01
294.05,-0.295,-0.015
294.06,-0.315,-0.03
294.06,-0.325,-0.045
294.06,-0.33,-0.04
294.06,-0.31,-0.035
294.07,-0.3,-0.045
294.07,-0.305,-0.055
294.07,-0.32,-0.08
294.07,-0.32,-0.075
294.08,-0.325,-0.08
294.08,-0.315,-0.075
294.08,-0.315,-0.07
294.09,-0.31,-0.08
294.09,-0.315,-0.07
294.09,-0.325,-0.09
294.09,-0.325,-0.09
294.1,-0.32,-0.085
294.1,-0.315,-0.08
294.1,-0.325,-0.075
294.11,-0.32,-0.09
294.11,-0.335,-0.095
294.11,-0.325,-0.095
294.11,-0.315,-0.075
294.12,-0.305,-0.08
294.12,-0.31,-0.075
294.12,-0.315,-0.09
294.12,-0.315,-0.09
294.13,-0.32,-0.085
294.13,-0.305,-0.08
294.13,-0.31,-0.065
294.14,-0.31,-0.06
294.14,-0.32,-0.07
294.14,-0.32,-0.07
294.14,-0.33,-0.06
294.15,-0.32,-0.06
294.15,-0.315,-0.045
294.15,-0.32,-0.055
294.16,-0.32,-0.055
294.16,-0.33,-0.07
294.16,-0.335,-0.06
294.16,-0.325,-0.06
294.17,-0.33,-0.065
294.17,-0.33,-0.06
294.17,-0.345,-0.075
294.17,-0.33,-0.085
294.18,-0.35,-0.065
294.18,-0.335,-0.055
294.18,-0.325,-0.065
294.19,-0.34,-0.07
294.19,-0.345,-0.075
294.19,-0.355,-0.1
294.19,-0.355,-0.085
294.2,-0.34,-0.09
294.2,-0.34,-0.085
294.2,-0.34,-0.1
294.21,-0.355,-0.11
294.21,-0.36,-0.12
294.21,-0.36,-0.115
294.21,-0.355,-0.12
294.22,-0.35,-0.105
294.22,-0.35,-0.125
294.22,-0.365,-0.135
294.22,-0.375,-0.145
294.23,-0.37,-0.145
294.23,-0.36,-0.135
294.23,-0.35,-0.135
294.24,-0.365,-0.15
294.24,-0.36,-0.16
294.24,-0.375,-0.17
294.24,-0.375,-0.155
294.25,-0.37,-0.15
294.25,-0.365,-0.155
294.25,-0.365,-0.155
294.26,-0.38,-0.16
294.26,-0.38,-0.175
294.26,-0.39,-0.175
294.26,-0.38,-0.16
294.27,-0.365,-0.16
294.27,-0.38,-0.16
294.27,-0.39,-0.175
294.27,-0.395,-0.175
294.28,-0.395,-0.16
294.28,-0.385,-0.15
294.28,-0.37,-0.14
294.29,-0.375,-0.125
294.29,-0.385,-0.15
294.29,-0.385,-0.15
294.29,-0.385,-0.13
294.3,-0.375,-0.125
294.3,-0.365,-0.125
294.3,-0.37,-0.14
294.31,-0.38,-0.155
294.31,-0.39,-0.17
294.31,-0.39,-0.175
294.31,-0.375,-0.18
294.32,-0.355,-0.17
294.32,-0.34,-0.185
294.32,-0.335,-0.21
294.32,-0.34,-0.22
294.33,-0.34,-0.215
294.33,-0.335,-0.225
294.33,-0.33,-0.225
294.34,-0.34,-0.235
294.34,-0.35,-0.25
294.34,-0.36,-0.26
294.34,-0.365,-0.265
294.35,-0.35,-0.26
294.35,-0.335,-0.255
294.35,-0.345,-0.26
294.36,-0.36,-0.245
294.36,-0.355,-0.245
294.36,-0.355,-0.225
294.36,-0.36,-0.23
294.37,-0.355,-0.215
294.37,-0.36,-0.22
294.37,-0.385,-0.245
294.38,-0.39,-0.245
294.38,-0.385,-0.23
294.38,-0.38,-0.215
294.38,-0.36,-0.22
294.39,-0.37,-0.22
294.39,-0.38,-0.23
294.39,-0.37,-0.235
294.39,-0.375,-0.22
294.4,-0.365,-0.205
294.4,-0.355,-0.19
294.4,-0.345,-0.175
294.41,-0.34,-0.165
294.41,-0.35,-0.075
294.41,-0.34,0.185
294.41,-0.305,0.56
294.42,-0.255,0.735
294.42,-0.2,0.585
294.42,-0.075,0.345
294.42,0.22,0.205
294.43,0.565,0.165
294.43,0.68,0.15
294.43,0.495,0.12
294.44,0.2,0.08
294.44,0.055,0.06
294.44,0.025,0.02
294.44,0.04,-0.035
294.45,0.075,-0.1
294.45,0.095,-0.23
294.45,0.105,-0.4
294.46,0.105,-0.615
294.46,0.13,-0.815
294.46,0.145,-1.015
294.46,0.185,-1.205
294.47,0.19,-1.43
294.47,0.205,-1.655
294.47,0.205,-1.85
294.47,0.21,-1.99
294.48,0.23,-2.095
294.48,0.265,-2.17
294.48,0.29,-2.255
294.49,0.295,-2.36
294.49,0.285,-2.485
294.49,0.275,-2.6
294.49,0.28,-2.7
294.5,0.27,-2.765
294.5,0.225,-2.815
294.5,0.165,-2.855
294.51,0.12,-2.9
294.51,0.075,-2.94
294.51,0.02,-2.97
294.51,-0.065,-2.985
294.52,-0.145,-3
294.52,-0.215,-3.015
294.52,-0.265,-3.035
294.52,-0.27,-3.04
294.53,-0.27,-3.01
294.53,-0.26,-2.97
294.53,-0.26,-2.94
294.54,-0.275,-2.87
294.54,-0.295,-2.785
294.54,-0.285,-2.665
294.54,-0.295,-2.52
294.55,-0.285,-2.35
294.55,-0.28,-2.15
294.55,-0.275,-1.955
294.56,-0.265,-1.73
294.56,-0.28,-1.475
294.56,-0.29,-1.165
294.56,-0.3,-0.865
294.57,-0.305,-0.58
294.57,-0.325,-0.345
294.57,-0.35,-0.155
294.57,-0.38,0.005
294.58,-0.405,0.135
294.58,-0.405,0.225
294.58,-0.39,0.295
294.59,-0.415,0.34
294.59,-0.43,0.385
294.59,-0.46,0.42
294.59,-0.465,0.47
294.6,-0.46,0.53
294.6,-0.45,0.565
294.6,-0.465,0.605
294.61,-0.475,0.62
294.61,-0.48,0.65
294.61,-0.485,0.67
294.61,-0.48,0.715
294.62,-0.465,0.745
294.62,-0.475,0.775
294.62,-0.48,0.785
294.62,-0.48,0.8
294.63,-0.5,0.835
294.63,-0.475,0.865
294.63,-0.47,0.91
294.64,-0.47,0.935
294.64,-0.475,0.95
294.64,-0.475,0.98
294.64,-0.48,1.005
294.65,-0.485,1.06
294.65,-0.46,1.09
294.65,-0.475,1.12
294.66,-0.485,1.135
294.66,-0.485,1.17
294.66,-0.475,1.2
294.66,-0.46,1.245
294.67,-0.46,1.28
294.67,-0.455,1.31
294.67,-0.465,1.335
294.67,-0.475,1.375
294.68,-0.48,1.41
294.68,-0.47,1.44
294.68,-0.46,1.47
294.69,-0.465,1.495
294.69,-0.46,1.52
294.69,-0.46,1.535
294.69,-0.465,1.56
294.7,-0.455,1.585
294.7,-0.44,1.605
294.7,-0.435,1.615
294.71,-0.44,1.605
294.71,-0.44,1.605
294.71,-0.445,1.605
294.71,-0.435,1.61
294.72,-0.41,1.6
294.72,-0.42,1.58
294.72,-0.415,1.55
294.72,-0.41,1.515
294.73,-0.41,1.505
294.73,-0.39,1.465
294.73,-0.385,1.44
294.74,-0.375,1.385
294.74,-0.37,1.33
294.74,-0.38,1.28
294.74,-0.36,1.23
294.75,-0.355,1.185
294.75,-0.34,1.14
294.75,-0.33,1.075
294.76,-0.33,1
294.76,-0.335,0.925
294.76,-0.34,0.875
294.76,-0.34,0.83
294.77,-0.31,0.77
294.77,-0.32,0.705
294.77,-0.32,0.645
294.77,-0.325,0.585
294.78,-0.33,0.53
294.78,-0.32,0.485
294.78,-0.305,0.435
294.79,-0.305,0.38
294.79,-0.325,0.32
294.79,-0.32,0.28
294.79,-0.325,0.24
294.8,-0.315,0.22
294.8,-0.32,0.185
294.8,-0.315,0.15
294.81,-0.325,0.11
294.81,-0.33,0.085
294.81,-0.34,0.05
294.81,-0.335,0.05
294.82,-0.33,0.025
294.82,-0.33,0.01
294.82,-0.345,-0.01
294.82,-0.35,-0.03
294.83,-0.35,-0.035
294.83,-0.345,-0.045
294.83,-0.33,-0.05
294.84,-0.345,-0.075
294.84,-0.35,-0.075
294.84,-0.36,-0.09
294.84,-0.36,-0.085
294.85,-0.345,-0.09
294.85,-0.34,-0.09
294.85,-0.335,-0.095
294.86,-0.35,-0.1
294.86,-0.35,-0.125
294.86,-0.345,-0.12
294.86,-0.345,-0.11
294.87,-0.335,-0.105
294.87,-0.34,-0.12
294.87,-0.36,-0.12
294.88,-0.365,-0.135
294.88,-0.35,-0.125
294.88,-0.35,-0.115
294.88,-0.34,-0.105
294.89,-0.335,-0.115
294.89,-0.35,-0.13
294.89,-0.355,-0.125
294.89,-0.355,-0.125
294.9,-0.34,-0.115
294.9,-0.33,-0.105
294.9,-0.325,-0.11
294.91,-0.35,-0.115
294.91,-0.36,-0.125
294.91,-0.365,-0.125
294.91,-0.345,-0.115
294.92,-0.33,-0.1
294.92,-0.325,-0.095
294.92,-0.34,-0.1
294.92,-0.34,-0.11
294.93,-0.335,-0.09
294.93,-0.335,-0.08
294.93,-0.32,-0.085
294.94,-0.32,-0.08
294.94,-0.34,-0.095
294.94,-0.345,-0.09
294.94,-0.345,-0.09
294.95,-0.35,-0.09
294.95,-0.325,-0.08
294.95,-0.34,-0.09
294.96,-0.35,-0.1
294.96,-0.365,-0.115
294.96,-0.36,-0.105
294.96,-0.35,-0.09
294.97,-0.345,-0.1
294.97,-0.35,-0.105
294.97,-0.345,-0.125
294.97,-0.375,-0.115
294.98,-0.375,-0.12
294.98,-0.355,-0.115
294.98,-0.35,-0.115
294.99,-0.34,-0.125
294.99,-0.35,-0.145
294.99,-0.36,-0.145
294.99,-0.37,-0.145
295,-0.36,-0.13
295,-0.355,-0.135
295,-0.36,-0.145
295.01,-0.37,-0.16
295.01,-0.375,-0.16
295.01,-0.36,-0.165
295.01,-0.365,-0.16
295.02,-0.35,-0.16
295.02,-0.365,-0.15
295.02,-0.385,-0.165
295.02,-0.39,-0.17
295.03,-0.4,-0.165
295.03,-0.4,-0.165
295.03,-0.395,-0.155
295.04,-0.405,-0.165
295.04,-0.395,-0.17
295.04,-0.385,-0.18
295.04,-0.38,-0.16
295.05,-0.355,-0.145
295.05,-0.345,-0.145
295.05,-0.365,-0.13
295.06,-0.36,-0.145
295.06,-0.365,-0.155
295.06,-0.38,-0.13
295.06,-0.365,-0.145
295.07,-0.36,-0.135
295.07,-0.37,-0.155
295.07,-0.365,-0.175
295.07,-0.365,-0.2
295.08,-0.37,-0.195
295.08,-0.35,-0.19
295.08,-0.325,-0.205
295.09,-0.325,-0.205
295.09,-0.335,-0.225
295.09,-0.345,-0.235
295.09,-0.34,-0.235
295.1,-0.33,-0.24
295.1,-0.345,-0.245
295.1,-0.34,-0.265
295.11,-0.355,-0.27
295.11,-0.36,-0.28
295.11,-0.365,-0.275
295.11,-0.355,-0.26
295.12,-0.345,-0.255
295.12,-0.34,-0.25
295.12,-0.34,-0.25
295.12,-0.345,-0.255
295.13,-0.355,-0.24
295.13,-0.36,-0.245
295.13,-0.36,-0.24
295.14,-0.365,-0.245
295.14,-0.365,-0.245
295.14,-0.37,-0.26
295.14,-0.37,-0.255
295.15,-0.365,-0.24
295.15,-0.35,-0.24
295.15,-0.345,-0.245
295.16,-0.365,-0.255
295.16,-0.37,-0.26
295.16,-0.385,-0.25
295.16,-0.37,-0.24
295.17,-0.35,-0.235
295.17,-0.35,-0.235
295.17,-0.345,-0.24
295.17,-0.345,-0.25
295.18,-0.36,-0.25
295.18,-0.36,-0.23
295.18,-0.345,-0.23
295.19,-0.36,-0.235
295.19,-0.37,-0.24
295.19,-0.38,-0.25
295.19,-0.38,-0.225
295.2,-0.365,-0.205
295.2,-0.35,-0.185
295.2,-0.34,-0.13
295.21,-0.33,0.07
295.21,-0.3,0.43
295.21,-0.26,0.66
295.21,-0.2,0.55
295.22,-0.055,0.315
295.22,0.235,0.19
295.22,0.565,0.155
295.22,0.68,0.12
295.23,0.48,0.095
295.23,0.205,0.095
295.23,0.065,0.075
295.24,0.045,0.045
295.24,0.075,-0.015
295.24,0.085,-0.1
295.24,0.1,-0.2
295.25,0.115,-0.325
295.25,0.145,-0.505
295.25,0.145,-0.715
295.26,0.16,-0.92
295.26,0.165,-1.13
295.26,0.185,-1.36
295.26,0.19,-1.585
295.27,0.215,-1.785
295.27,0.2,-1.955
295.27,0.215,-2.105
295.27,0.255,-2.235
295.28,0.285,-2.34
295.28,0.305,-2.425
295.28,0.315,-2.515
295.29,0.305,-2.59
295.29,0.285,-2.645
295.29,0.24,-2.68
295.29,0.165,-2.655
295.3,0.11,-2.64
295.3,0.065,-2.635
295.3,0.06,-2.65
295.31,0.075,-2.68
295.31,0.075,-2.72
295.31,0.025,-2.735
295.31,-0.02,-2.705
295.32,-0.05,-2.655
295.32,-0.04,-2.59
295.32,-0.01,-2.47
295.32,0.015,-2.23
295.33,0.065,-1.935
295.33,0.12,-1.605
295.33,0.14,-1.28
295.34,0.11,-1.005
295.34,0.05,-0.78
295.34,-0.04,-0.6
295.34,-0.125,-0.445
295.35,-0.185,-0.325
295.35,-0.23,-0.24
295.35,-0.285,-0.165
295.36,-0.335,-0.11
295.36,-0.37,-0.05
295.36,-0.39,0
295.36,-0.39,0.045
295.37,-0.38,0.07
295.37,-0.4,0.11
295.37,-0.425,0.11
295.38,-0.425,0.145
295.38,-0.43,0.175
295.38,-0.445,0.2
295.38,-0.435,0.225
295.39,-0.435,0.235
295.39,-0.435,0.245
295.39,-0.435,0.255
295.39,-0.44,0.285
295.4,-0.425,0.3
295.4,-0.43,0.315
295.4,-0.45,0.33
295.41,-0.46,0.335
295.41,-0.48,0.35
295.41,-0.49,0.37
295.41,-0.48,0.395
295.42,-0.475,0.41
295.42,-0.47,0.435
295.42,-0.47,0.44
295.42,-0.48,0.465
295.43,-0.475,0.48
295.43,-0.46,0.51
295.43,-0.455,0.52
295.44,-0.45,0.55
295.44,-0.47,0.56
295.44,-0.475,0.575
295.44,-0.485,0.6
295.45,-0.475,0.635
295.45,-0.47,0.655
295.45,-0.47,0.68
295.46,-0.47,0.685
295.46,-0.49,0.7
295.46,-0.485,0.725
295.46,-0.475,0.775
295.47,-0.445,0.785
295.47,-0.455,0.815
295.47,-0.465,0.82
295.47,-0.47,0.835
295.48,-0.46,0.855
295.48,-0.47,0.885
295.48,-0.455,0.895
295.49,-0.455,0.9
295.49,-0.46,0.9
295.49,-0.475,0.905
295.49,-0.475,0.92
295.5,-0.45,0.925
295.5,-0.42,0.915
295.5,-0.42,0.9
295.51,-0.42,0.895
295.51,-0.42,0.875
295.51,-0.415,0.87
295.51,-0.4,0.86
295.52,-0.39,0.855
295.52,-0.39,0.825
295.52,-0.4,0.78
295.52,-0.405,0.775
295.53,-0.405,0.745
295.53,-0.385,0.715
295.53,-0.38,0.68
295.54,-0.37,0.635
295.54,-0.345,0.595
295.54,-0.345,0.545
295.54,-0.335,0.515
295.55,-0.335,0.485
295.55,-0.33,0.455
295.55,-0.32,0.405
295.56,-0.325,0.35
295.56,-0.325,0.305
295.56,-0.31,0.28
295.56,-0.305,0.255
295.57,-0.3,0.23
295.57,-0.29,0.19
295.57,-0.3,0.16
295.57,-0.3,0.105
295.58,-0.295,0.09
295.58,-0.29,0.085
295.58,-0.29,0.05
295.59,-0.29,0.035
295.59,-0.29,0.005
295.59,-0.295,-0.025
295.59,-0.295,-0.035
295.6,-0.28,-0.025
295.6,-0.275,-0.045
295.6,-0.27,-0.05
295.61,-0.265,-0.07
295.61,-0.26,-0.08
295.61,-0.285,-0.09
295.61,-0.285,-0.085
295.62,-0.265,-0.1
295.62,-0.275,-0.095
295.62,-0.29,-0.11
295.62,-0.32,-0.12
295.63,-0.31,-0.115
295.63,-0.305,-0.1
295.63,-0.28,-0.105
295.64,-0.27,-0.1
295.64,-0.255,-0.11
295.64,-0.26,-0.13
295.64,-0.265,-0.11
295.65,-0.275,-0.105
295.65,-0.275,-0.11
295.65,-0.27,-0.1
295.66,-0.285,-0.11
295.66,-0.285,-0.115
295.66,-0.29,-0.1
295.66,-0.275,-0.105
295.67,-0.26,-0.095
295.67,-0.26,-0.105
295.67,-0.27,-0.11
295.67,-0.28,-0.115
295.68,-0.295,-0.11
295.68,-0.28,-0.105
295.68,-0.27,-0.095
295.69,-0.27,-0.105
295.69,-0.28,-0.12
295.69,-0.275,-0.125
295.69,-0.275,-0.115
295.7,-0.265,-0.1
295.7,-0.26,-0.115
295.7,-0.275,-0.105
295.71,-0.285,-0.125
295.71,-0.285,-0.13
295.71,-0.285,-0.12
295.71,-0.275,-0.115
295.72,-0.26,-0.12
295.72,-0.275,-0.12
295.72,-0.28,-0.135
295.72,-0.295,-0.14
295.73,-0.295,-0.15
295.73,-0.29,-0.13
295.73,-0.28,-0.125
295.74,-0.305,-0.135
295.74,-0.325,-0.145
295.74,-0.32,-0.155
295.74,-0.315,-0.14
295.75,-0.305,-0.125
295.75,-0.295,-0.14
295.75,-0.3,-0.14
295.76,-0.305,-0.155
295.76,-0.315,-0.165
295.76,-0.315,-0.16
295.76,-0.315,-0.16
295.77,-0.31,-0.15
295.77,-0.315,-0.16
295.77,-0.33,-0.165
295.77,-0.325,-0.185
295.78,-0.32,-0.155
295.78,-0.315,-0.155
295.78,-0.31,-0.17
295.79,-0.315,-0.165
295.79,-0.32,-0.185
295.79,-0.32,-0.175
295.79,-0.335,-0.165
295.8,-0.315,-0.165
295.8,-0.305,-0.17
295.8,-0.31,-0.165
295.81,-0.325,-0.185
295.81,-0.325,-0.18
295.81,-0.335,-0.18
295.81,-0.325,-0.18
295.82,-0.315,-0.17
295.82,-0.33,-0.18
295.82,-0.325,-0.175
295.82,-0.33,-0.19
295.83,-0.355,-0.185
295.83,-0.345,-0.185
295.83,-0.34,-0.175
295.84,-0.335,-0.185
295.84,-0.345,-0.185
295.84,-0.34,-0.185
295.84,-0.355,-0.17
295.85,-0.33,-0.16
295.85,-0.31,-0.165
295.85,-0.315,-0.15
295.86,-0.33,-0.17
295.86,-0.335,-0.165
295.86,-0.33,-0.155
295.86,-0.335,-0.135
295.87,-0.33,-0.135
295.87,-0.325,-0.145
295.87,-0.335,-0.145
295.88,-0.33,-0.175
295.88,-0.32,-0.165
295.88,-0.31,-0.17
295.88,-0.295,-0.175
295.89,-0.295,-0.19
295.89,-0.295,-0.2
295.89,-0.295,-0.195
295.89,-0.29,-0.205
295.9,-0.28,-0.205
295.9,-0.28,-0.205
295.9,-0.28,-0.22
295.91,-0.305,-0.25
295.91,-0.32,-0.255
295.91,-0.31,-0.255
295.91,-0.305,-0.26
295.92,-0.305,-0.255
295.92,-0.3,-0.275
295.92,-0.31,-0.275
295.92,-0.31,-0.27
295.93,-0.31,-0.24
295.93,-0.31,-0.22
295.93,-0.31,-0.22
295.94,-0.32,-0.22
295.94,-0.325,-0.225
295.94,-0.335,-0.235
295.94,-0.345,-0.225
295.95,-0.34,-0.21
295.95,-0.33,-0.21
295.95,-0.335,-0.225
295.96,-0.335,-0.23
295.96,-0.345,-0.235
295.96,-0.35,-0.22
295.96,-0.34,-0.215
295.97,-0.33,-0.215
295.97,-0.34,-0.22
295.97,-0.35,-0.225
295.97,-0.335,-0.225
295.98,-0.355,-0.225
295.98,-0.34,-0.2
295.98,-0.325,-0.205
295.99,-0.34,-0.21
295.99,-0.34,-0.22
295.99,-0.345,-0.23
295.99,-0.345,-0.215
296,-0.335,-0.21
296,-0.325,-0.21
296,-0.335,-0.2
296.01,-0.335,-0.205
296.01,-0.345,-0.205
296.01,-0.335,-0.21
296.01,-0.325,-0.195
296.02,-0.305,-0.185
296.02,-0.305,-0.18
296.02,-0.325,-0.175
296.02,-0.315,-0.14
296.03,-0.305,-0.05
296.03,-0.275,0.21
296.03,-0.24,0.56
296.04,-0.205,0.71
296.04,-0.135,0.55
296.04,0.03,0.335
296.04,0.36,0.245
296.05,0.685,0.225
296.05,0.735,0.21
296.05,0.475,0.185
296.06,0.18,0.14
296.06,0.04,0.135
296.06,0.035,0.13
296.06,0.07,0.085
296.07,0.09,0.03
296.07,0.105,-0.075
296.07,0.095,-0.215
296.07,0.13,-0.39
296.08,0.145,-0.575
296.08,0.175,-0.78
296.08,0.2,-0.99
296.09,0.215,-1.215
296.09,0.215,-1.45
296.09,0.2,-1.63
296.09,0.185,-1.71
296.1,0.2,-1.73
296.1,0.21,-1.685
296.1,0.2,-1.615
296.11,0.175,-1.575
296.11,0.135,-1.57
296.11,0.155,-1.575
296.11,0.22,-1.66
296.12,0.285,-1.785
296.12,0.3,-1.96
296.12,0.25,-2.11
296.12,0.185,-2.195
296.13,0.13,-2.26
296.13,0.11,-2.26
296.13,0.135,-2.195
296.14,0.155,-2.025
296.14,0.195,-1.785
296.14,0.22,-1.515
296.14,0.235,-1.23
296.15,0.225,-0.965
296.15,0.185,-0.775
296.15,0.125,-0.635
296.16,0.045,-0.53
296.16,-0.045,-0.45
296.16,-0.13,-0.37
296.16,-0.185,-0.295
296.17,-0.25,-0.24
296.17,-0.28,-0.195
296.17,-0.33,-0.155
296.17,-0.375,-0.135
296.18,-0.385,-0.125
296.18,-0.4,-0.085
296.18,-0.41,-0.055
296.19,-0.425,-0.05
296.19,-0.435,-0.045
296.19,-0.45,-0.03
296.19,-0.47,-0.015
296.2,-0.45,0.01
296.2,-0.46,0.025
296.2,-0.47,0.03
296.21,-0.48,0.025
296.21,-0.49,0.04
296.21,-0.495,0.06
296.21,-0.505,0.065
296.22,-0.485,0.08
296.22,-0.49,0.085
296.22,-0.505,0.08
296.22,-0.515,0.1
296.23,-0.525,0.115
296.23,-0.52,0.13
296.23,-0.505,0.14
296.24,-0.515,0.145
296.24,-0.525,0.14
296.24,-0.53,0.155
296.24,-0.535,0.17
296.25,-0.525,0.185
296.25,-0.51,0.205
296.25,-0.525,0.225
296.26,-0.525,0.22
296.26,-0.545,0.22
296.26,-0.55,0.25
296.26,-0.53,0.275
296.27,-0.52,0.28
296.27,-0.53,0.295
296.27,-0.545,0.3
296.27,-0.555,0.31
296.28,-0.555,0.335
296.28,-0.55,0.355
296.28,-0.54,0.375
296.29,-0.545,0.37
296.29,-0.555,0.38
296.29,-0.565,0.385
296.29,-0.555,0.395
296.3,-0.56,0.435
296.3,-0.535,0.435
296.3,-0.535,0.44
296.31,-0.54,0.45
296.31,-0.55,0.45
296.31,-0.55,0.455
296.31,-0.555,0.47
296.32,-0.53,0.47
296.32,-0.53,0.475
296.32,-0.54,0.465
296.32,-0.55,0.46
296.33,-0.535,0.455
296.33,-0.53,0.465
296.33,-0.515,0.475
296.34,-0.51,0.45
296.34,-0.505,0.435
296.34,-0.51,0.425
296.34,-0.495,0.4
296.35,-0.49,0.405
296.35,-0.47,0.395
296.35,-0.46,0.38
296.36,-0.47,0.355
296.36,-0.47,0.325
296.36,-0.47,0.315
296.36,-0.45,0.315
296.37,-0.435,0.3
296.37,-0.43,0.28
296.37,-0.43,0.245
296.38,-0.43,0.215
296.38,-0.415,0.2
296.38,-0.4,0.185
296.38,-0.385,0.17
296.39,-0.38,0.145
296.39,-0.375,0.115
296.39,-0.38,0.09
296.39,-0.375,0.09
296.4,-0.355,0.075
296.4,-0.345,0.06
296.4,-0.335,0.03
296.41,-0.34,0.02
296.41,-0.345,0
296.41,-0.35,-0.01
296.41,-0.335,-0.015
296.42,-0.325,-0.025
296.42,-0.325,-0.035
296.42,-0.335,-0.04
296.42,-0.34,-0.055
296.43,-0.335,-0.06
296.43,-0.325,-0.045
296.43,-0.305,-0.06
296.44,-0.3,-0.06
296.44,-0.32,-0.06
296.44,-0.325,-0.07
296.44,-0.32,-0.07
296.45,-0.32,-0.05
296.45,-0.315,-0.06
296.45,-0.31,-0.07
296.46,-0.325,-0.075
296.46,-0.34,-0.08
296.46,-0.335,-0.065
296.46,-0.335,-0.055
296.47,-0.315,-0.06
296.47,-0.32,-0.07
296.47,-0.32,-0.07
296.47,-0.33,-0.07
296.48,-0.34,-0.055
296.48,-0.32,-0.05
296.48,-0.31,-0.05
296.49,-0.325,-0.055
296.49,-0.315,-0.07
296.49,-0.335,-0.07
296.49,-0.34,-0.075
296.5,-0.32,-0.055
296.5,-0.31,-0.05
296.5,-0.31,-0.065
296.51,-0.315,-0.065
296.51,-0.32,-0.075
296.51,-0.32,-0.07
296.51,-0.32,-0.05
296.52,-0.305,-0.055
296.52,-0.315,-0.055
296.52,-0.315,-0.075
296.52,-0.33,-0.08
296.53,-0.325,-0.08
296.53,-0.315,-0.06
296.53,-0.305,-0.07
296.54,-0.3,-0.07
296.54,-0.315,-0.085
296.54,-0.32,-0.09
296.54,-0.325,-0.075
296.55,-0.315,-0.065
296.55,-0.3,-0.07
296.55,-0.31,-0.06
296.56,-0.32,-0.075
296.56,-0.32,-0.085
296.56,-0.34,-0.075
296.56,-0.33,-0.08
296.57,-0.31,-0.065
296.57,-0.315,-0.075
296.57,-0.32,-0.09
296.57,-0.345,-0.1
296.58,-0.345,-0.075
296.58,-0.325,-0.07
296.58,-0.335,-0.075
296.59,-0.33,-0.08
296.59,-0.345,-0.11
296.59,-0.34,-0.11
296.59,-0.345,-0.095
296.6,-0.345,-0.085
296.6,-0.33,-0.085
296.6,-0.34,-0.09
296.61,-0.335,-0.095
296.61,-0.35,-0.1
296.61,-0.355,-0.1
296.61,-0.335,-0.09
296.62,-0.33,-0.09
296.62,-0.35,-0.105
296.62,-0.36,-0.115
296.62,-0.36,-0.11
296.63,-0.36,-0.11
296.63,-0.345,-0.105
296.63,-0.35,-0.105
296.64,-0.345,-0.11
296.64,-0.35,-0.125
296.64,-0.365,-0.12
296.64,-0.375,-0.12
296.65,-0.36,-0.1
296.65,-0.345,-0.095
296.65,-0.355,-0.105
296.66,-0.37,-0.115
296.66,-0.375,-0.115
296.66,-0.38,-0.11
296.66,-0.365,-0.09
296.67,-0.35,-0.1
296.67,-0.36,-0.095
296.67,-0.36,-0.095
296.67,-0.365,-0.09
296.68,-0.37,-0.075
296.68,-0.35,-0.06
296.68,-0.355,-0.065
296.69,-0.355,-0.07
296.69,-0.375,-0.065
296.69,-0.37,-0.085
296.69,-0.365,-0.09
296.7,-0.35,-0.095
296.7,-0.33,-0.11
296.7,-0.335,-0.115
296.71,-0.345,-0.125
296.71,-0.34,-0.135
296.71,-0.335,-0.13
296.71,-0.325,-0.125
296.72,-0.32,-0.145
296.72,-0.32,-0.155
296.72,-0.345,-0.175
296.72,-0.355,-0.185
296.73,-0.35,-0.19
296.73,-0.335,-0.19
296.73,-0.33,-0.185
296.74,-0.33,-0.195
296.74,-0.335,-0.195
296.74,-0.345,-0.2
296.74,-0.345,-0.17
296.75,-0.345,-0.14
296.75,-0.34,-0.145
296.75,-0.35,-0.15
296.76,-0.36,-0.145
296.76,-0.395,-0.16
296.76,-0.39,-0.145
296.76,-0.385,-0.14
296.77,-0.375,-0.135
296.77,-0.375,-0.145
296.77,-0.375,-0.155
296.77,-0.395,-0.16
296.78,-0.375,-0.15
296.78,-0.375,-0.14
296.78,-0.37,-0.14
296.79,-0.38,-0.135
296.79,-0.38,-0.14
296.79,-0.385,-0.15
296.79,-0.385,-0.14
296.8,-0.38,-0.13
296.8,-0.36,-0.125
296.8,-0.375,-0.14
296.81,-0.38,-0.14
296.81,-0.38,-0.145
296.81,-0.385,-0.15
296.81,-0.375,-0.13
296.82,-0.36,-0.13
296.82,-0.365,-0.13
296.82,-0.375,-0.145
296.82,-0.375,-0.145
296.83,-0.37,-0.14
296.83,-0.36,-0.125
296.83,-0.35,-0.13
296.84,-0.35,-0.13
296.84,-0.365,-0.135
296.84,-0.365,-0.14
296.84,-0.36,-0.125
296.85,-0.35,-0.105
296.85,-0.34,-0.11
296.85,-0.34,-0.105
296.86,-0.34,-0.115
296.86,-0.345,-0.105
296.86,-0.335,-0.07
296.86,-0.32,-0.025
296.87,-0.3,0.15
296.87,-0.275,0.5
296.87,-0.25,0.785
296.88,-0.195,0.765
296.88,-0.1,0.555
296.88,0.155,0.4
296.88,0.515,0.34
296.89,0.725,0.3
296.89,0.63,0.25
296.89,0.315,0.215
296.89,0.09,0.215
296.9,0.035,0.2
296.9,0.06,0.15
296.9,0.09,0.075
296.91,0.08,-0.02
296.91,0.07,-0.16
296.91,0.08,-0.3
296.91,0.11,-0.42
296.92,0.115,-0.505
296.92,0.11,-0.53
296.92,0.08,-0.535
296.92,0.045,-0.525
296.93,0.025,-0.5
296.93,0.035,-0.485
296.93,0.1,-0.52
296.94,0.185,-0.66
296.94,0.25,-0.915
296.94,0.27,-1.22
296.94,0.285,-1.5
296.95,0.28,-1.72
296.95,0.29,-1.885
296.95,0.275,-1.975
296.96,0.27,-1.95
296.96,0.26,-1.845
296.96,0.27,-1.685
296.96,0.28,-1.45
296.97,0.28,-1.17
296.97,0.26,-0.91
296.97,0.24,-0.73
296.97,0.19,-0.605
296.98,0.11,-0.5
296.98,0.06,-0.42
296.98,0.005,-0.37
296.99,-0.055,-0.32
296.99,-0.135,-0.29
296.99,-0.175,-0.25
296.99,-0.225,-0.215
297,-0.255,-0.19
297,-0.28,-0.18
297,-0.31,-0.17
297.01,-0.345,-0.17
297.01,-0.37,-0.145
297.01,-0.395,-0.135
297.01,-0.395,-0.12
297.02,-0.39,-0.125
297.02,-0.41,-0.12
297.02,-0.42,-0.12
297.02,-0.44,-0.105
297.03,-0.45,-0.1
297.03,-0.445,-0.085
297.03,-0.445,-0.065
297.04,-0.445,-0.075
297.04,-0.465,-0.08
297.04,-0.485,-0.075
297.04,-0.47,-0.07
297.05,-0.475,-0.055
297.05,-0.465,-0.045
297.05,-0.475,-0.045
297.06,-0.48,-0.055
297.06,-0.495,-0.035
297.06,-0.5,-0.03
297.06,-0.49,-0.02
297.07,-0.495,-0.015
297.07,-0.51,-0.02
297.07,-0.5,-0.015
297.07,-0.525,0
297.08,-0.515,0.005
297.08,-0.5,0.03
297.08,-0.505,0.035
297.09,-0.505,0.03
297.09,-0.52,0.03
297.09,-0.525,0.04
297.09,-0.535,0.045
297.1,-0.52,0.05
297.1,-0.525,0.07
297.1,-0.515,0.075
297.11,-0.53,0.065
297.11,-0.545,0.065
297.11,-0.54,0.09
297.11,-0.54,0.095
297.12,-0.525,0.105
297.12,-0.53,0.105
297.12,-0.535,0.1
297.12,-0.54,0.105
297.13,-0.54,0.125
297.13,-0.535,0.13
297.13,-0.525,0.13
297.14,-0.525,0.135
297.14,-0.535,0.12
297.14,-0.545,0.13
297.14,-0.525,0.13
297.15,-0.525,0.145
297.15,-0.52,0.145
297.15,-0.52,0.145
297.16,-0.525,0.14
297.16,-0.535,0.13
297.16,-0.525,0.135
297.16,-0.505,0.145
297.17,-0.495,0.135
297.17,-0.495,0.13
297.17,-0.495,0.125
297.17,-0.495,0.115
297.18,-0.485,0.12
297.18,-0.465,0.13
297.18,-0.445,0.135
297.19,-0.45,0.125
297.19,-0.44,0.115
297.19,-0.435,0.1
297.19,-0.425,0.105
297.2,-0.41,0.1
297.2,-0.385,0.095
297.2,-0.4,0.08
297.21,-0.39,0.07
297.21,-0.37,0.065
297.21,-0.37,0.07
297.21,-0.36,0.065
297.22,-0.33,0.065
297.22,-0.335,0.05
297.22,-0.345,0.03
297.22,-0.34,0.02
297.23,-0.335,0.01
297.23,-0.33,0.015
297.23,-0.325,0.015
297.24,-0.305,0.005
297.24,-0.315,-0.01
297.24,-0.325,-0.02
297.24,-0.315,-0.025
297.25,-0.305,-0.015
297.25,-0.295,-0.035
297.25,-0.3,-0.025
297.26,-0.31,-0.03
297.26,-0.31,-0.035
297.26,-0.305,-0.025
297.26,-0.295,-0.025
297.27,-0.31,-0.015
297.27,-0.29,-0.025
297.27,-0.3,-0.03
297.27,-0.32,-0.02
297.28,-0.31,-0.025
297.28,-0.305,-0.01
297.28,-0.31,-0.02
297.29,-0.3,-0.03
297.29,-0.305,-0.02
297.29,-0.32,-0.025
297.29,-0.31,-0.02
297.3,-0.31,-0.01
297.3,-0.32,-0.01
297.3,-0.31,-0.015
297.31,-0.32,-0.03
297.31,-0.335,-0.03
297.31,-0.32,-0.01
297.31,-0.3,-0.01
297.32,-0.3,-0.01
297.32,-0.29,-0.02
297.32,-0.3,-0.03
297.32,-0.305,-0.025
297.33,-0.285,-0.02
297.33,-0.285,0.005
297.33,-0.28,-0.02
297.34,-0.295,-0.015
297.34,-0.29,-0.025
297.34,-0.31,-0.025
297.34,-0.3,-0.03
297.35,-0.295,-0.02
297.35,-0.29,-0.02
297.35,-0.295,-0.025
297.36,-0.31,-0.04
297.36,-0.315,-0.045
297.36,-0.32,-0.025
297.36,-0.295,-0.025
297.37,-0.29,-0.03
297.37,-0.285,-0.03
297.37,-0.29,-0.035
297.38,-0.31,-0.035
297.38,-0.31,-0.03
297.38,-0.31,-0.025
297.38,-0.3,-0.03
297.39,-0.3,-0.03
297.39,-0.305,-0.045
297.39,-0.32,-0.06
297.39,-0.32,-0.04
297.4,-0.32,-0.03
297.4,-0.31,-0.045
297.4,-0.31,-0.04
297.41,-0.315,-0.045
297.41,-0.32,-0.055
297.41,-0.315,-0.04
297.41,-0.315,-0.03
297.42,-0.305,-0.04
297.42,-0.305,-0.045
297.42,-0.31,-0.045
297.42,-0.32,-0.045
297.43,-0.335,-0.045
297.43,-0.33,-0.04
297.43,-0.32,-0.04
297.44,-0.325,-0.055
297.44,-0.34,-0.05
297.44,-0.34,-0.065
297.44,-0.335,-0.04
297.45,-0.335,-0.04
297.45,-0.315,-0.045
297.45,-0.31,-0.05
297.46,-0.32,-0.055
297.46,-0.32,-0.065
297.46,-0.325,-0.06
297.46,-0.325,-0.055
297.47,-0.315,-0.05
297.47,-0.32,-0.06
297.47,-0.335,-0.07
297.47,-0.34,-0.07
297.48,-0.32,-0.065
297.48,-0.33,-0.045
297.48,-0.32,-0.045
297.49,-0.325,-0.055
297.49,-0.33,-0.075
297.49,-0.34,-0.075
297.49,-0.325,-0.065
297.5,-0.315,-0.07
297.5,-0.32,-0.06
297.5,-0.315,-0.07
297.51,-0.315,-0.085
297.51,-0.33,-0.08
297.51,-0.345,-0.07
297.51,-0.33,-0.065
297.52,-0.33,-0.055
297.52,-0.335,-0.065
297.52,-0.345,-0.08
297.52,-0.35,-0.085
297.53,-0.345,-0.07
297.53,-0.335,-0.06
297.53,-0.33,-0.06
297.54,-0.32,-0.065
297.54,-0.33,-0.085
297.54,-0.345,-0.08
297.54,-0.34,-0.07
297.55,-0.33,-0.065
297.55,-0.32,-0.07
297.55,-0.325,-0.065
297.56,-0.325,-0.075
297.56,-0.33,-0.08
297.56,-0.32,-0.07
297.56,-0.315,-0.065
297.57,-0.305,-0.07
297.57,-0.32,-0.075
297.57,-0.35,-0.07
297.57,-0.355,-0.08
297.58,-0.35,-0.08
297.58,-0.345,-0.065
297.58,-0.325,-0.07
297.59,-0.325,-0.065
297.59,-0.32,-0.07
297.59,-0.325,-0.08
297.59,-0.31,-0.075
297.6,-0.305,-0.06
297.6,-0.31,-0.06
297.6,-0.31,-0.07
297.61,-0.32,-0.08
297.61,-0.34,-0.07
297.61,-0.33,-0.075
297.61,-0.32,-0.075
297.62,-0.32,-0.06
297.62,-0.315,-0.07
297.62,-0.335,-0.095
297.62,-0.33,-0.085
297.63,-0.33,-0.075
297.63,-0.325,-0.065
297.63,-0.31,-0.065
297.64,-0.305,-0.07
297.64,-0.315,-0.075
297.64,-0.32,-0.07
297.64,-0.315,-0.045
297.65,-0.31,-0.03
297.65,-0.3,-0.03
297.65,-0.305,-0.03
297.66,-0.315,-0.03
297.66,-0.325,-0.035
297.66,-0.34,-0.025
297.66,-0.335,0
297.67,-0.33,0
297.67,-0.325,0.01
297.67,-0.33,-0.01
297.67,-0.335,-0.02
297.68,-0.33,-0.005
297.68,-0.32,0.01
297.68,-0.31,0.005
297.69,-0.29,0.01
297.69,-0.3,-0.005
297.69,-0.285,-0.03
297.69,-0.3,-0.015
297.7,-0.27,-0.005
297.7,-0.26,-0.01
297.7,-0.26,-0.01
297.71,-0.255,-0.005
297.71,-0.24,0.06
297.71,-0.225,0.25
297.71,-0.185,0.615
297.72,-0.145,0.96
297.72,-0.1,0.975
297.72,-0.03,0.69
297.72,0.185,0.425
297.73,0.555,0.34
297.73,0.83,0.29
297.73,0.765,0.235
297.74,0.46,0.17
297.74,0.2,0.105
297.74,0.11,0.005
297.74,0.13,-0.105
297.75,0.14,-0.215
297.75,0.13,-0.375
297.75,0.12,-0.56
297.76,0.105,-0.765
297.76,0.095,-0.99
297.76,0.095,-1.16
297.76,0.11,-1.3
297.77,0.115,-1.43
297.77,0.09,-1.57
297.77,0.09,-1.725
297.77,0.07,-1.88
297.78,0.075,-2.07
297.78,0.105,-2.24
297.78,0.125,-2.38
297.79,0.12,-2.49
297.79,0.105,-2.575
297.79,0.07,-2.655
297.79,0.05,-2.725
297.8,0.04,-2.775
297.8,0.015,-2.81
297.8,-0.025,-2.845
297.81,-0.065,-2.875
297.81,-0.115,-2.895
297.81,-0.155,-2.89
297.81,-0.21,-2.885
297.82,-0.28,-2.895
297.82,-0.35,-2.89
297.82,-0.4,-2.9
297.82,-0.41,-2.905
297.83,-0.385,-2.885
297.83,-0.35,-2.865
297.83,-0.33,-2.855
297.84,-0.32,-2.83
297.84,-0.335,-2.78
297.84,-0.36,-2.71
297.84,-0.385,-2.595
297.85,-0.39,-2.455
297.85,-0.405,-2.305
297.85,-0.395,-2.14
297.86,-0.41,-1.93
297.86,-0.39,-1.715
297.86,-0.35,-1.48
297.86,-0.315,-1.265
297.87,-0.295,-1.05
297.87,-0.285,-0.84
297.87,-0.31,-0.66
297.88,-0.34,-0.495
297.88,-0.36,-0.295
297.88,-0.355,-0.12
297.88,-0.35,0.04
297.89,-0.36,0.17
297.89,-0.355,0.305
297.89,-0.36,0.435
297.89,-0.35,0.55
297.9,-0.325,0.645
297.9,-0.315,0.7
297.9,-0.325,0.77
297.91,-0.325,0.81
297.91,-0.34,0.835
297.91,-0.33,0.875
297.91,-0.32,0.915
297.92,-0.31,0.94
297.92,-0.31,0.965
297.92,-0.315,0.975
297.92,-0.315,1
297.93,-0.31,1.035
297.93,-0.295,1.08
297.93,-0.285,1.08
297.94,-0.285,1.095
297.94,-0.3,1.105
297.94,-0.31,1.13
297.94,-0.305,1.165
297.95,-0.295,1.195
297.95,-0.285,1.22
297.95,-0.285,1.225
297.96,-0.295,1.235
297.96,-0.295,1.265
297.96,-0.3,1.295
297.96,-0.28,1.325
297.97,-0.275,1.345
297.97,-0.265,1.375
297.97,-0.285,1.39
297.97,-0.295,1.415
297.98,-0.285,1.445
297.98,-0.265,1.47
297.98,-0.255,1.495
297.99,-0.26,1.52
297.99,-0.26,1.545
297.99,-0.275,1.57
297.99,-0.27,1.61
298,-0.26,1.63
298,-0.25,1.67
298,-0.235,1.685
298.01,-0.245,1.685
298.01,-0.245,1.715
298.01,-0.24,1.745
298.01,-0.23,1.78
298.02,-0.22,1.8
298.02,-0.22,1.795
298.02,-0.225,1.805
298.02,-0.24,1.8
298.03,-0.22,1.83
298.03,-0.205,1.845
298.03,-0.19,1.85
298.04,-0.175,1.85
298.04,-0.19,1.84
298.04,-0.18,1.82
298.04,-0.18,1.825
298.05,-0.155,1.825
298.05,-0.145,1.8
298.05,-0.15,1.77
298.06,-0.145,1.74
298.06,-0.155,1.71
298.06,-0.145,1.68
298.06,-0.125,1.66
298.07,-0.125,1.615
298.07,-0.12,1.58
298.07,-0.125,1.525
298.07,-0.125,1.47
298.08,-0.12,1.445
298.08,-0.11,1.39
298.08,-0.1,1.345
298.09,-0.1,1.295
298.09,-0.09,1.235
298.09,-0.1,1.18
298.09,-0.09,1.135
298.1,-0.08,1.09
298.1,-0.08,1.04
298.1,-0.1,0.985
298.11,-0.115,0.925
298.11,-0.135,0.875
298.11,-0.145,0.83
298.11,-0.14,0.79
298.12,-0.125,0.74
298.12,-0.125,0.685
298.12,-0.13,0.625
298.12,-0.13,0.575
298.13,-0.145,0.55
298.13,-0.14,0.52
298.13,-0.145,0.475
298.14,-0.15,0.445
298.14,-0.155,0.405
298.14,-0.145,0.365
298.14,-0.14,0.355
298.15,-0.13,0.335
298.15,-0.135,0.31
298.15,-0.15,0.28
298.16,-0.175,0.245
298.16,-0.19,0.23
298.16,-0.19,0.21
298.16,-0.2,0.21
298.17,-0.19,0.195
298.17,-0.18,0.175
298.17,-0.195,0.155
298.17,-0.2,0.145
298.18,-0.205,0.15
298.18,-0.2,0.145
298.18,-0.2,0.145
298.19,-0.205,0.135
298.19,-0.205,0.12
298.19,-0.205,0.12
298.19,-0.21,0.115
298.2,-0.195,0.12
298.2,-0.185,0.11
298.2,-0.19,0.105
298.21,-0.21,0.1
298.21,-0.215,0.1
298.21,-0.215,0.115
298.21,-0.21,0.11
298.22,-0.2,0.115
298.22,-0.21,0.105
298.22,-0.225,0.095
298.22,-0.23,0.09
298.23,-0.235,0.11
298.23,-0.215,0.115
298.23,-0.205,0.115
298.24,-0.205,0.115
298.24,-0.21,0.1
298.24,-0.22,0.1
298.24,-0.22,0.11
298.25,-0.22,0.12
298.25,-0.22,0.1
298.25,-0.225,0.105
298.26,-0.22,0.095
298.26,-0.235,0.1
298.26,-0.23,0.09
298.26,-0.225,0.115
298.27,-0.22,0.105
298.27,-0.225,0.095
298.27,-0.23,0.09
298.27,-0.25,0.1
298.28,-0.245,0.1
298.28,-0.245,0.1
298.28,-0.23,0.085
298.29,-0.235,0.085
298.29,-0.24,0.075
298.29,-0.245,0.075
298.29,-0.245,0.09
298.3,-0.23,0.09
298.3,-0.225,0.09
298.3,-0.225,0.085
298.31,-0.23,0.075
298.31,-0.245,0.075
298.31,-0.245,0.08
298.31,-0.25,0.075
298.32,-0.24,0.07
298.32,-0.245,0.06
298.32,-0.245,0.055
298.32,-0.26,0.055
298.33,-0.25,0.055
298.33,-0.25,0.06
298.33,-0.25,0.055
298.34,-0.25,0.04
298.34,-0.26,0.035
298.34,-0.265,0.025
298.34,-0.26,0.04
298.35,-0.255,0.03
298.35,-0.255,0.03
298.35,-0.26,0.02
298.36,-0.26,0.005
298.36,-0.27,-0.005
298.36,-0.26,0
298.36,-0.26,0.01
298.37,-0.26,0.01
298.37,-0.27,-0.005
298.37,-0.275,-0.005
298.38,-0.285,-0.02
298.38,-0.275,-0.01
298.38,-0.27,-0.005
298.38,-0.255,-0.005
298.39,-0.27,-0.025
298.39,-0.28,-0.02
298.39,-0.28,-0.04
298.39,-0.275,-0.025
298.4,-0.275,-0.03
298.4,-0.27,-0.025
298.4,-0.27,-0.025
298.41,-0.28,-0.04
298.41,-0.29,-0.05
298.41,-0.285,-0.035
298.41,-0.28,-0.03
298.42,-0.27,-0.03
298.42,-0.27,-0.035
298.42,-0.29,-0.055
298.42,-0.29,-0.05
298.43,-0.275,-0.05
298.43,-0.275,-0.04
298.43,-0.265,-0.04
298.44,-0.275,-0.05
298.44,-0.28,-0.07
298.44,-0.29,-0.065
298.44,-0.285,-0.06
298.45,-0.28,-0.05
298.45,-0.285,-0.05
298.45,-0.27,-0.055
298.46,-0.295,-0.075
298.46,-0.3,-0.065
298.46,-0.29,-0.06
298.46,-0.295,-0.06
298.47,-0.275,-0.06
298.47,-0.27,-0.065
298.47,-0.28,-0.08
298.47,-0.285,-0.095
298.48,-0.285,-0.07
298.48,-0.275,-0.06
298.48,-0.27,-0.06
298.49,-0.27,-0.075
298.49,-0.285,-0.085
298.49,-0.295,-0.075
298.49,-0.28,-0.075
298.5,-0.27,-0.065
298.5,-0.275,-0.07
298.5,-0.27,-0.065
298.51,-0.28,-0.085
298.51,-0.29,-0.075
298.51,-0.285,-0.08
298.51,-0.28,-0.07
298.52,-0.27,-0.07
298.52,-0.275,-0.08
298.52,-0.285,-0.085
298.52,-0.295,-0.07
298.53,-0.295,-0.075
298.53,-0.28,-0.065
298.53,-0.275,-0.07
298.54,-0.27,-0.08
298.54,-0.27,-0.085
298.54,-0.285,-0.09
298.54,-0.27,-0.085
298.55,-0.27,-0.065
298.55,-0.26,-0.07
298.55,-0.26,-0.065
298.56,-0.27,-0.085
298.56,-0.28,-0.085
298.56,-0.28,-0.075
298.56,-0.26,-0.065
298.57,-0.255,-0.05
298.57,-0.245,-0.05
298.57,-0.25,-0.03
298.57,-0.255,0.015
298.58,-0.23,0.17
298.58,-0.215,0.485
298.58,-0.19,0.855
298.59,-0.155,0.96
298.59,-0.105,0.745
298.59,0.02,0.515
298.59,0.3,0.4
298.6,0.64,0.365
298.6,0.78,0.33
298.6,0.63,0.28
298.61,0.35,0.235
298.61,0.155,0.205
298.61,0.11,0.18
298.61,0.125,0.13
298.62,0.14,0.05
298.62,0.145,-0.075
298.62,0.14,-0.215
298.62,0.14,-0.4
298.63,0.15,-0.595
298.63,0.165,-0.78
298.63,0.17,-1.015
298.64,0.18,-1.255
298.64,0.17,-1.515
298.64,0.16,-1.73
298.64,0.14,-1.905
298.65,0.12,-2.075
298.65,0.155,-2.235
298.65,0.15,-2.385
298.66,0.14,-2.495
298.66,0.11,-2.57
298.66,0.1,-2.67
298.66,0.09,-2.75
298.67,0.075,-2.825
298.67,0.035,-2.875
298.67,-0.025,-2.915
298.67,-0.1,-2.935
298.68,-0.16,-2.95
298.68,-0.17,-2.95
298.68,-0.22,-2.96
298.69,-0.295,-2.975
298.69,-0.37,-2.98
298.69,-0.465,-2.98
298.69,-0.485,-2.965
298.7,-0.475,-2.96
298.7,-0.455,-2.955
298.7,-0.43,-2.965
298.71,-0.435,-2.965
298.71,-0.44,-2.95
298.71,-0.455,-2.915
298.71,-0.45,-2.87
298.72,-0.465,-2.82
298.72,-0.48,-2.725
298.72,-0.49,-2.625
298.72,-0.505,-2.515
298.73,-0.495,-2.37
298.73,-0.46,-2.19
298.73,-0.43,-2.005
298.74,-0.4,-1.79
298.74,-0.385,-1.585
298.74,-0.37,-1.36
298.74,-0.365,-1.16
298.75,-0.355,-0.955
298.75,-0.345,-0.75
298.75,-0.35,-0.555
298.76,-0.355,-0.395
298.76,-0.375,-0.24
298.76,-0.375,-0.09
298.76,-0.365,0.05
298.77,-0.36,0.16
298.77,-0.355,0.28
298.77,-0.37,0.375
298.77,-0.375,0.495
298.78,-0.355,0.585
298.78,-0.35,0.67
298.78,-0.32,0.715
298.79,-0.32,0.745
298.79,-0.335,0.765
298.79,-0.34,0.825
298.79,-0.325,0.865
298.8,-0.31,0.905
298.8,-0.31,0.94
298.8,-0.32,0.95
298.81,-0.33,0.97
298.81,-0.36,0.995
298.81,-0.355,1.015
298.81,-0.365,1.045
298.82,-0.35,1.06
298.82,-0.355,1.07
298.82,-0.36,1.075
298.82,-0.37,1.09
298.83,-0.37,1.135
298.83,-0.37,1.155
298.83,-0.36,1.18
298.84,-0.365,1.19
298.84,-0.385,1.195
298.84,-0.405,1.225
298.84,-0.395,1.245
298.85,-0.39,1.27
298.85,-0.385,1.29
298.85,-0.405,1.31
298.86,-0.405,1.32
298.86,-0.435,1.325
298.86,-0.42,1.355
298.86,-0.415,1.38
298.87,-0.41,1.405
298.87,-0.415,1.415
298.87,-0.42,1.415
298.88,-0.435,1.44
298.88,-0.435,1.485
298.88,-0.42,1.505
298.88,-0.415,1.52
298.89,-0.425,1.535
298.89,-0.425,1.545
298.89,-0.43,1.555
298.89,-0.415,1.6
298.9,-0.41,1.62
298.9,-0.405,1.625
298.9,-0.405,1.64
298.91,-0.405,1.65
298.91,-0.415,1.67
298.91,-0.4,1.695
298.91,-0.385,1.715
298.92,-0.365,1.73
298.92,-0.375,1.72
298.92,-0.37,1.72
298.92,-0.375,1.725
298.93,-0.35,1.75
298.93,-0.34,1.75
298.93,-0.33,1.74
298.94,-0.32,1.725
298.94,-0.325,1.7
298.94,-0.325,1.695
298.94,-0.29,1.68
298.95,-0.285,1.655
298.95,-0.265,1.625
298.95,-0.265,1.595
298.96,-0.265,1.555
298.96,-0.26,1.5
298.96,-0.235,1.47
298.96,-0.235,1.445
298.97,-0.21,1.38
298.97,-0.21,1.325
298.97,-0.215,1.255
298.97,-0.205,1.205
298.98,-0.19,1.16
298.98,-0.175,1.115
298.98,-0.155,1.04
298.99,-0.145,0.975
298.99,-0.165,0.905
298.99,-0.165,0.845
298.99,-0.165,0.8
299,-0.155,0.755
299,-0.155,0.7
299,-0.15,0.645
299.01,-0.165,0.58
299.01,-0.175,0.53
299.01,-0.16,0.505
299.01,-0.165,0.465
299.02,-0.16,0.43
299.02,-0.175,0.385
299.02,-0.185,0.35
299.02,-0.2,0.31
299.03,-0.2,0.3
299.03,-0.19,0.285
299.03,-0.19,0.26
299.04,-0.19,0.23
299.04,-0.205,0.205
299.04,-0.225,0.2
299.04,-0.225,0.195
299.05,-0.215,0.18
299.05,-0.22,0.175
299.05,-0.23,0.16
299.06,-0.23,0.14
299.06,-0.235,0.14
299.06,-0.25,0.14
299.06,-0.235,0.145
299.07,-0.23,0.125
299.07,-0.23,0.12
299.07,-0.25,0.11
299.07,-0.26,0.105
299.08,-0.245,0.11
299.08,-0.25,0.13
299.08,-0.24,0.125
299.09,-0.245,0.115
299.09,-0.255,0.105
299.09,-0.26,0.11
299.09,-0.26,0.105
299.1,-0.255,0.115
299.1,-0.255,0.11
299.1,-0.25,0.11
299.11,-0.255,0.095
299.11,-0.27,0.1
299.11,-0.265,0.11
299.11,-0.255,0.105
299.12,-0.24,0.115
299.12,-0.25,0.1
299.12,-0.255,0.1
299.12,-0.27,0.085
299.13,-0.265,0.09
299.13,-0.255,0.105
299.13,-0.245,0.1
299.14,-0.255,0.095
299.14,-0.26,0.08
299.14,-0.27,0.085
299.14,-0.27,0.085
299.15,-0.26,0.095
299.15,-0.245,0.085
299.15,-0.255,0.085
299.16,-0.27,0.06
299.16,-0.275,0.065
299.16,-0.275,0.07
299.16,-0.26,0.08
299.17,-0.255,0.06
299.17,-0.25,0.06
299.17,-0.265,0.03
299.17,-0.285,0.02
299.18,-0.28,0.035
299.18,-0.275,0.035
299.18,-0.265,0.03
299.19,-0.275,0.015
299.19,-0.29,0.005
299.19,-0.3,-0.005
299.19,-0.29,0
299.2,-0.275,0.01
299.2,-0.275,-0.005
299.2,-0.275,-0.005
299.21,-0.28,-0.015
299.21,-0.295,-0.025
299.21,-0.29,-0.015
299.21,-0.29,-0.025
299.22,-0.265,-0.035
299.22,-0.29,-0.04
299.22,-0.29,-0.045
299.22,-0.295,-0.05
299.23,-0.3,-0.05
299.23,-0.295,-0.04
299.23,-0.295,-0.05
299.24,-0.29,-0.055
299.24,-0.3,-0.07
299.24,-0.31,-0.065
299.24,-0.295,-0.065
299.25,-0.285,-0.065
299.25,-0.295,-0.06
299.25,-0.3,-0.07
299.26,-0.3,-0.08
299.26,-0.315,-0.09
299.26,-0.32,-0.09
299.26,-0.305,-0.08
299.27,-0.305,-0.08
299.27,-0.3,-0.085
299.27,-0.305,-0.1
299.27,-0.315,-0.095
299.28,-0.315,-0.09
299.28,-0.305,-0.085
299.28,-0.3,-0.08
299.29,-0.3,-0.095
299.29,-0.295,-0.105
299.29,-0.325,-0.11
299.29,-0.31,-0.1
299.3,-0.305,-0.09
299.3,-0.305,-0.105
299.3,-0.3,-0.115
299.31,-0.305,-0.11
299.31,-0.315,-0.115
299.31,-0.315,-0.095
299.31,-0.3,-0.1
299.32,-0.305,-0.105
299.32,-0.305,-0.11
299.32,-0.31,-0.125
299.32,-0.32,-0.115
299.33,-0.315,-0.115
299.33,-0.32,-0.1
299.33,-0.305,-0.115
299.34,-0.315,-0.115
299.34,-0.315,-0.125
299.34,-0.315,-0.135
299.34,-0.31,-0.115
299.35,-0.31,-0.105
299.35,-0.295,-0.125
299.35,-0.3,-0.13
299.36,-0.315,-0.14
299.36,-0.315,-0.13
299.36,-0.315,-0.125
299.36,-0.315,-0.12
299.37,-0.305,-0.115
299.37,-0.305,-0.12
299.37,-0.305,-0.125
299.38,-0.31,-0.135
299.38,-0.305,-0.13
299.38,-0.305,-0.125
299.38,-0.295,-0.115
299.39,-0.29,-0.125
299.39,-0.3,-0.14
299.39,-0.315,-0.135
299.39,-0.305,-0.12
299.4,-0.3,-0.105
299.4,-0.285,-0.125
299.4,-0.285,-0.125
299.41,-0.29,-0.135
299.41,-0.295,-0.135
299.41,-0.285,-0.125
299.41,-0.285,-0.11
299.42,-0.265,-0.105
299.42,-0.265,-0.1
299.42,-0.265,-0.085
299.42,-0.27,-0.03
299.43,-0.255,0.17
299.43,-0.225,0.52
299.43,-0.185,0.83
299.44,-0.15,0.825
299.44,-0.055,0.54
299.44,0.165,0.325
299.44,0.545,0.275
299.45,0.77,0.26
299.45,0.65,0.205
299.45,0.36,0.155
299.46,0.15,0.1
299.46,0.095,0.04
299.46,0.12,-0.03
299.46,0.14,-0.145
299.47,0.135,-0.3
299.47,0.15,-0.505
299.47,0.14,-0.73
299.47,0.14,-0.975
299.48,0.16,-1.195
299.48,0.175,-1.41
299.48,0.185,-1.64
299.49,0.17,-1.83
299.49,0.15,-1.98
299.49,0.13,-2.135
299.49,0.14,-2.295
299.5,0.145,-2.435
299.5,0.145,-2.55
299.5,0.14,-2.655
299.51,0.115,-2.75
299.51,0.07,-2.84
299.51,0.05,-2.895
299.51,0.005,-2.935
299.52,-0.055,-2.97
299.52,-0.11,-2.99
299.52,-0.175,-3.02
299.52,-0.24,-3.025
299.53,-0.305,-3.035
299.53,-0.38,-3.025
299.53,-0.45,-3.035
299.54,-0.49,-3.04
299.54,-0.525,-3.05
299.54,-0.485,-3.045
299.54,-0.445,-3.02
299.55,-0.41,-3.005
299.55,-0.385,-2.995
299.55,-0.39,-2.985
299.56,-0.41,-2.94
299.56,-0.43,-2.87
299.56,-0.425,-2.775
299.56,-0.435,-2.65
299.57,-0.425,-2.52
299.57,-0.42,-2.39
299.57,-0.42,-2.225
299.57,-0.405,-2.02
299.58,-0.385,-1.78
299.58,-0.345,-1.55
299.58,-0.32,-1.32
299.59,-0.33,-1.11
299.59,-0.345,-0.885
299.59,-0.365,-0.65
299.59,-0.37,-0.435
299.6,-0.35,-0.23
299.6,-0.365,-0.065
299.6,-0.375,0.085
299.61,-0.38,0.225
299.61,-0.395,0.365
299.61,-0.39,0.5
299.61,-0.365,0.605
299.62,-0.345,0.675
299.62,-0.345,0.72
299.62,-0.345,0.765
299.62,-0.355,0.8
299.63,-0.35,0.845
299.63,-0.325,0.895
299.63,-0.315,0.925
299.64,-0.32,0.955
299.64,-0.325,0.975
299.64,-0.335,1.015
299.64,-0.33,1.05
299.65,-0.325,1.085
299.65,-0.325,1.11
299.65,-0.335,1.135
299.66,-0.335,1.15
299.66,-0.35,1.17
299.66,-0.35,1.195
299.66,-0.325,1.235
299.67,-0.32,1.26
299.67,-0.33,1.27
299.67,-0.325,1.305
299.67,-0.34,1.32
299.68,-0.33,1.355
299.68,-0.31,1.365
299.68,-0.305,1.39
299.69,-0.29,1.39
299.69,-0.305,1.405
299.69,-0.315,1.44
299.69,-0.315,1.46
299.7,-0.31,1.485
299.7,-0.295,1.505
299.7,-0.3,1.505
299.71,-0.29,1.52
299.71,-0.285,1.525
299.71,-0.3,1.555
299.71,-0.275,1.58
299.72,-0.26,1.59
299.72,-0.27,1.61
299.72,-0.28,1.61
299.72,-0.285,1.645
299.73,-0.29,1.675
299.73,-0.28,1.7
299.73,-0.26,1.72
299.74,-0.285,1.745
299.74,-0.275,1.765
299.74,-0.295,1.775
299.74,-0.29,1.785
299.75,-0.305,1.79
299.75,-0.3,1.795
299.75,-0.3,1.8
299.76,-0.3,1.785
299.76,-0.305,1.78
299.76,-0.3,1.775
299.76,-0.28,1.765
299.77,-0.275,1.74
299.77,-0.275,1.71
299.77,-0.26,1.665
299.77,-0.275,1.635
299.78,-0.255,1.61
299.78,-0.245,1.57
299.78,-0.235,1.535
299.79,-0.23,1.48
299.79,-0.225,1.42
299.79,-0.235,1.365
299.79,-0.225,1.325
299.8,-0.205,1.275
299.8,-0.18,1.205
299.8,-0.175,1.14
299.81,-0.185,1.055
299.81,-0.18,0.99
299.81,-0.17,0.94
299.81,-0.165,0.865
299.82,-0.15,0.8
299.82,-0.155,0.73
299.82,-0.175,0.665
299.82,-0.17,0.6
299.83,-0.17,0.55
299.83,-0.16,0.51
299.83,-0.155,0.46
299.84,-0.165,0.41
299.84,-0.175,0.355
299.84,-0.185,0.315
299.84,-0.195,0.285
299.85,-0.195,0.265
299.85,-0.195,0.235
299.85,-0.19,0.215
299.86,-0.215,0.17
299.86,-0.225,0.15
299.86,-0.21,0.135
299.86,-0.205,0.14
299.87,-0.215,0.12
299.87,-0.225,0.1
299.87,-0.24,0.08
299.88,-0.26,0.065
299.88,-0.25,0.075
299.88,-0.245,0.07
299.88,-0.24,0.065
299.89,-0.245,0.05
299.89,-0.255,0.04
299.89,-0.255,0.035
299.89,-0.26,0.04
299.9,-0.24,0.055
299.9,-0.25,0.045
299.9,-0.26,0.04
299.91,-0.255,0.03
299.91,-0.27,0.035
299.91,-0.265,0.035
299.91,-0.25,0.055
299.92,-0.245,0.045
299.92,-0.245,0.04
299.92,-0.26,0.035
299.92,-0.265,0.025
299.93,-0.26,0.035
299.93,-0.255,0.045
299.93,-0.245,0.05
299.94,-0.245,0.03
299.94,-0.25,0.03
299.94,-0.265,0.02
299.94,-0.265,0.035
299.95,-0.255,0.04
299.95,-0.245,0.035
299.95,-0.26,0.035
299.96,-0.285,0.025
299.96,-0.285,0.015
299.96,-0.28,0.015
299.96,-0.27,0.035
299.97,-0.255,0.025
299.97,-0.27,0.01
299.97,-0.28,0.005
299.97,-0.285,0
299.98,-0.275,0.005
299.98,-0.27,0.015
299.98,-0.25,0.005
299.99,-0.26,-0.005
299.99,-0.27,-0.02
299.99,-0.27,-0.015
299.99,-0.27,-0.015
300,-0.26,-0.015
300,-0.255,-0.01
300,-0.26,-0.03
300.01,-0.26,-0.045
300.01,-0.275,-0.045
300.01,-0.275,-0.04
300.01,-0.27,-0.04
300.02,-0.265,-0.045
300.02,-0.275,-0.06
300.02,-0.29,-0.075
300.02,-0.285,-0.085
300.03,-0.275,-0.075
300.03,-0.27,-0.065
300.03,-0.27,-0.06
300.04,-0.285,-0.075
300.04,-0.295,-0.08
300.04,-0.3,-0.1
300.04,-0.29,-0.09
300.05,-0.29,-0.08
300.05,-0.265,-0.09
300.05,-0.28,-0.095
300.06,-0.275,-0.105
300.06,-0.28,-0.12
300.06,-0.285,-0.11
300.06,-0.28,-0.1
300.07,-0.275,-0.115
300.07,-0.28,-0.125
300.07,-0.28,-0.12
300.07,-0.285,-0.12
300.08,-0.28,-0.12
300.08,-0.28,-0.115
300.08,-0.265,-0.115
300.09,-0.28,-0.125
300.09,-0.285,-0.135
300.09,-0.285,-0.13
300.09,-0.29,-0.14
300.1,-0.28,-0.11
300.1,-0.265,-0.135
300.1,-0.28,-0.14
300.11,-0.29,-0.15
300.11,-0.3,-0.14
300.11,-0.295,-0.14
300.11,-0.285,-0.135
300.12,-0.285,-0.14
300.12,-0.29,-0.15
300.12,-0.29,-0.15
300.12,-0.295,-0.155
300.13,-0.305,-0.13
300.13,-0.295,-0.13
300.13,-0.295,-0.15
300.14,-0.29,-0.15
300.14,-0.29,-0.155
300.14,-0.295,-0.16
300.14,-0.285,-0.155
300.15,-0.275,-0.135
300.15,-0.27,-0.145
300.15,-0.275,-0.155
300.16,-0.275,-0.175
300.16,-0.28,-0.155
300.16,-0.27,-0.15
300.16,-0.28,-0.135
300.17,-0.27,-0.145
300.17,-0.275,-0.15
300.17,-0.275,-0.15
300.17,-0.285,-0.16
300.18,-0.285,-0.15
300.18,-0.28,-0.145
300.18,-0.275,-0.15
300.19,-0.27,-0.15
300.19,-0.265,-0.16
300.19,-0.275,-0.17
300.19,-0.265,-0.16
300.2,-0.265,-0.15
300.2,-0.265,-0.16
300.2,-0.25,-0.15
300.21,-0.27,-0.16
300.21,-0.26,-0.16
300.21,-0.255,-0.15
300.21,-0.26,-0.125
300.22,-0.245,-0.11
300.22,-0.245,-0.065
300.22,-0.245,0.06
300.22,-0.225,0.415
300.23,-0.19,0.79
300.23,-0.14,0.83
300.23,-0.035,0.56
300.24,0.195,0.315
300.24,0.555,0.215
300.24,0.78,0.165
300.24,0.645,0.11
300.25,0.35,0.06
300.25,0.15,-0.03
300.25,0.105,-0.165
300.26,0.115,-0.325
300.26,0.12,-0.485
300.26,0.11,-0.675
300.26,0.12,-0.885
300.27,0.12,-1.12
300.27,0.135,-1.32
300.27,0.145,-1.495
300.27,0.135,-1.645
300.28,0.135,-1.79
300.28,0.125,-1.93
300.28,0.105,-2.13
300.29,0.11,-2.355
300.29,0.105,-2.535
300.29,0.095,-2.655
300.29,0.07,-2.735
300.3,0.05,-2.805
300.3,0.025,-2.885
300.3,-0.03,-2.95
300.31,-0.085,-3.01
300.31,-0.165,-3.04
300.31,-0.205,-3.055
300.31,-0.255,-3.04
300.32,-0.3,-3.055
300.32,-0.385,-3.07
300.32,-0.475,-3.075
300.32,-0.555,-3.075
300.33,-0.58,-3.075
300.33,-0.555,-3.05
300.33,-0.49,-3.05
300.34,-0.47,-3.035
300.34,-0.445,-3.03
300.34,-0.44,-2.985
300.34,-0.425,-2.9
300.35,-0.43,-2.8
300.35,-0.415,-2.665
300.35,-0.415,-2.515
300.36,-0.4,-2.335
300.36,-0.39,-2.115
300.36,-0.36,-1.86
300.36,-0.335,-1.6
300.37,-0.295,-1.35
300.37,-0.27,-1.11
300.37,-0.27,-0.885
300.38,-0.28,-0.67
300.38,-0.3,-0.465
300.38,-0.28,-0.275
300.38,-0.295,-0.1
300.39,-0.295,0.055
300.39,-0.315,0.205
300.39,-0.325,0.345
300.39,-0.31,0.48
300.4,-0.305,0.57
300.4,-0.28,0.635
300.4,-0.27,0.675
300.41,-0.265,0.695
300.41,-0.27,0.745
300.41,-0.275,0.785
300.41,-0.255,0.82
300.42,-0.26,0.85
300.42,-0.265,0.88
300.42,-0.26,0.885
300.42,-0.255,0.915
300.43,-0.255,0.945
300.43,-0.245,0.99
300.43,-0.23,0.995
300.44,-0.235,1.015
300.44,-0.245,1.03
300.44,-0.25,1.055
300.44,-0.245,1.08
300.45,-0.235,1.11
300.45,-0.22,1.125
300.45,-0.235,1.145
300.46,-0.24,1.16
300.46,-0.255,1.195
300.46,-0.25,1.23
300.46,-0.245,1.26
300.47,-0.255,1.28
300.47,-0.25,1.305
300.47,-0.255,1.33
300.47,-0.26,1.365
300.48,-0.24,1.39
300.48,-0.225,1.425
300.48,-0.215,1.44
300.49,-0.21,1.45
300.49,-0.205,1.47
300.49,-0.19,1.49
300.49,-0.18,1.525
300.5,-0.18,1.55
300.5,-0.18,1.57
300.5,-0.185,1.56
300.51,-0.18,1.58
300.51,-0.175,1.585
300.51,-0.17,1.62
300.51,-0.17,1.63
300.52,-0.185,1.64
300.52,-0.18,1.65
300.52,-0.18,1.63
300.52,-0.185,1.635
300.53,-0.165,1.65
300.53,-0.15,1.66
300.53,-0.13,1.66
300.54,-0.14,1.67
300.54,-0.15,1.65
300.54,-0.16,1.63
300.54,-0.15,1.615
300.55,-0.14,1.61
300.55,-0.135,1.575
300.55,-0.13,1.545
300.56,-0.13,1.485
300.56,-0.14,1.44
300.56,-0.145,1.415
300.56,-0.13,1.355
300.57,-0.115,1.295
300.57,-0.115,1.23
300.57,-0.11,1.175
300.57,-0.12,1.105
300.58,-0.11,1.055
300.58,-0.115,1
300.58,-0.1,0.945
300.59,-0.11,0.875
300.59,-0.12,0.81
300.59,-0.14,0.745
300.59,-0.135,0.7
300.6,-0.105,0.65
300.6,-0.095,0.59
300.6,-0.09,0.525
300.61,-0.095,0.45
300.61,-0.12,0.415
300.61,-0.135,0.38
300.61,-0.125,0.355
300.62,-0.14,0.305
300.62,-0.125,0.255
300.62,-0.14,0.225
300.62,-0.155,0.19
300.63,-0.15,0.16
300.63,-0.155,0.145
300.63,-0.15,0.13
300.64,-0.165,0.095
300.64,-0.18,0.07
300.64,-0.195,0.065
300.64,-0.185,0.07
300.65,-0.185,0.06
300.65,-0.185,0.055
300.65,-0.175,0.04
300.66,-0.175,0.005
300.66,-0.18,0.02
300.66,-0.185,0.015
300.66,-0.175,0.025
300.67,-0.2,0.02
300.67,-0.2,0
300.67,-0.205,0.005
300.67,-0.22,-0.005
300.68,-0.215,0.02
300.68,-0.215,0.02
300.68,-0.2,0.015
300.69,-0.2,0.01
300.69,-0.21,0.005
300.69,-0.2,0.005
300.69,-0.205,0.015
300.7,-0.19,0.03
300.7,-0.195,0.015
300.7,-0.19,0.025
300.71,-0.21,0.02
300.71,-0.225,0.005
300.71,-0.22,0.01
300.71,-0.21,0.025
300.72,-0.21,0.025
300.72,-0.21,0.015
300.72,-0.23,0.02
300.72,-0.235,0.01
300.73,-0.23,0.02
300.73,-0.225,0.035
300.73,-0.225,0.02
300.74,-0.23,0.015
300.74,-0.235,0.005
300.74,-0.225,0.01
300.74,-0.2,0.025
300.75,-0.2,0.02
300.75,-0.215,0.015
300.75,-0.23,0.01
300.76,-0.25,-0.005
300.76,-0.245,-0.015
300.76,-0.225,0
300.76,-0.215,0.01
300.77,-0.2,-0.005
300.77,-0.22,-0.02
300.77,-0.235,-0.03
300.77,-0.245,-0.035
300.78,-0.23,-0.03
300.78,-0.22,-0.025
300.78,-0.22,-0.035
300.79,-0.23,-0.045
300.79,-0.25,-0.055
300.79,-0.26,-0.07
300.79,-0.245,-0.065
300.8,-0.225,-0.05
300.8,-0.215,-0.06
300.8,-0.21,-0.07
300.81,-0.215,-0.085
300.81,-0.23,-0.09
300.81,-0.225,-0.075
300.81,-0.235,-0.085
300.82,-0.23,-0.075
300.82,-0.22,-0.09
300.82,-0.245,-0.09
300.82,-0.245,-0.105
300.83,-0.245,-0.095
300.83,-0.245,-0.085
300.83,-0.24,-0.095
300.84,-0.24,-0.105
300.84,-0.25,-0.125
300.84,-0.26,-0.135
300.84,-0.25,-0.115
300.85,-0.245,-0.115
300.85,-0.23,-0.13
300.85,-0.24,-0.125
300.86,-0.25,-0.135
300.86,-0.26,-0.135
300.86,-0.255,-0.13
300.86,-0.255,-0.12
300.87,-0.25,-0.13
300.87,-0.25,-0.14
300.87,-0.25,-0.145
300.88,-0.265,-0.155
300.88,-0.26,-0.14
300.88,-0.255,-0.14
300.88,-0.245,-0.145
300.89,-0.24,-0.145
300.89,-0.245,-0.155
300.89,-0.25,-0.16
300.89,-0.24,-0.15
300.9,-0.245,-0.135
300.9,-0.24,-0.15
300.9,-0.24,-0.15
300.91,-0.25,-0.17
300.91,-0.26,-0.165
300.91,-0.275,-0.15
300.91,-0.255,-0.145
300.92,-0.25,-0.145
300.92,-0.265,-0.155
300.92,-0.265,-0.155
300.92,-0.27,-0.165
300.93,-0.25,-0.15
300.93,-0.25,-0.15
300.93,-0.24,-0.155
300.94,-0.25,-0.155
300.94,-0.255,-0.175
300.94,-0.275,-0.17
300.94,-0.27,-0.17
300.95,-0.25,-0.15
300.95,-0.26,-0.15
300.95,-0.255,-0.155
300.96,-0.26,-0.175
300.96,-0.255,-0.175
300.96,-0.25,-0.155
300.96,-0.24,-0.15
300.97,-0.245,-0.15
300.97,-0.245,-0.16
300.97,-0.26,-0.175
300.97,-0.265,-0.16
300.98,-0.26,-0.165
300.98,-0.23,-0.15
300.98,-0.235,-0.155
300.99,-0.24,-0.16
300.99,-0.24,-0.17
300.99,-0.245,-0.16
300.99,-0.24,-0.155
301,-0.23,-0.145
301,-0.23,-0.14
301,-0.22,-0.14
301.01,-0.225,-0.14
301.01,-0.24,-0.115
301.01,-0.21,-0.065
301.01,-0.195,0.07
301.02,-0.175,0.395
301.02,-0.155,0.795
301.02,-0.11,0.94
301.02,-0.055,0.715
301.03,0.17,0.445
301.03,0.545,0.315
301.03,0.885,0.27
301.04,0.86,0.245
301.04,0.545,0.185
301.04,0.245,0.145
301.04,0.14,0.115
301.05,0.165,0.06
301.05,0.18,-0.015
301.05,0.205,-0.155
301.06,0.195,-0.3
301.06,0.21,-0.485
301.06,0.22,-0.69
301.06,0.235,-0.895
301.07,0.25,-1.12
301.07,0.24,-1.37
301.07,0.23,-1.625
301.07,0.215,-1.845
301.08,0.195,-2.025
301.08,0.195,-2.19
301.08,0.195,-2.365
301.09,0.21,-2.495
301.09,0.195,-2.595
301.09,0.145,-2.695
301.09,0.14,-2.78
301.1,0.135,-2.855
301.1,0.11,-2.95
301.1,0.055,-2.98
301.11,-0.03,-3.005
301.11,-0.11,-3.02
301.11,-0.155,-3.03
301.11,-0.19,-3.045
301.12,-0.255,-3.055
301.12,-0.345,-3.065
301.12,-0.455,-3.08
301.12,-0.51,-3.075
301.13,-0.53,-3.06
301.13,-0.515,-3.06
301.13,-0.475,-3.055
301.14,-0.45,-3.05
301.14,-0.46,-3.035
301.14,-0.48,-3.005
301.14,-0.485,-2.93
301.15,-0.5,-2.85
301.15,-0.49,-2.74
301.15,-0.5,-2.615
301.16,-0.49,-2.47
301.16,-0.46,-2.285
301.16,-0.435,-2.07
301.16,-0.405,-1.835
301.17,-0.375,-1.6
301.17,-0.37,-1.365
301.17,-0.375,-1.15
301.17,-0.37,-0.93
301.18,-0.365,-0.69
301.18,-0.355,-0.475
301.18,-0.355,-0.295
301.19,-0.36,-0.135
301.19,-0.375,0.01
301.19,-0.385,0.155
301.19,-0.38,0.29
301.2,-0.36,0.425
301.2,-0.34,0.515
301.2,-0.345,0.585
301.21,-0.34,0.645
301.21,-0.345,0.685
301.21,-0.355,0.73
301.21,-0.325,0.775
301.22,-0.305,0.81
301.22,-0.31,0.83
301.22,-0.31,0.865
301.22,-0.32,0.88
301.23,-0.315,0.925
301.23,-0.31,0.95
301.23,-0.3,0.975
301.24,-0.3,0.99
301.24,-0.315,1.005
301.24,-0.335,1.05
301.24,-0.32,1.07
301.25,-0.31,1.1
301.25,-0.315,1.125
301.25,-0.31,1.135
301.26,-0.33,1.14
301.26,-0.34,1.16
301.26,-0.34,1.205
301.26,-0.33,1.25
301.27,-0.33,1.275
301.27,-0.32,1.295
301.27,-0.33,1.315
301.27,-0.33,1.35
301.28,-0.32,1.4
301.28,-0.32,1.43
301.28,-0.315,1.475
301.29,-0.315,1.515
301.29,-0.325,1.525
301.29,-0.33,1.555
301.29,-0.325,1.59
301.3,-0.32,1.605
301.3,-0.305,1.625
301.3,-0.3,1.655
301.31,-0.31,1.66
301.31,-0.3,1.685
301.31,-0.28,1.72
301.31,-0.265,1.75
301.32,-0.255,1.745
301.32,-0.24,1.755
301.32,-0.255,1.75
301.32,-0.255,1.75
301.33,-0.25,1.77
301.33,-0.24,1.765
301.33,-0.235,1.765
301.34,-0.23,1.765
301.34,-0.225,1.745
301.34,-0.23,1.735
301.34,-0.21,1.735
301.35,-0.19,1.735
301.35,-0.185,1.715
301.35,-0.185,1.69
301.36,-0.19,1.65
301.36,-0.2,1.61
301.36,-0.195,1.58
301.36,-0.175,1.535
301.37,-0.17,1.485
301.37,-0.16,1.43
301.37,-0.165,1.35
301.38,-0.165,1.295
301.38,-0.145,1.225
301.38,-0.14,1.17
301.38,-0.12,1.1
301.39,-0.125,1.025
301.39,-0.13,0.95
301.39,-0.14,0.87
301.39,-0.125,0.83
301.4,-0.115,0.775
301.4,-0.115,0.705
301.4,-0.115,0.645
301.41,-0.115,0.59
301.41,-0.125,0.525
301.41,-0.14,0.48
301.41,-0.13,0.45
301.42,-0.145,0.4
301.42,-0.145,0.355
301.42,-0.16,0.31
301.42,-0.155,0.265
301.43,-0.165,0.255
301.43,-0.17,0.225
301.43,-0.17,0.205
301.44,-0.17,0.175
301.44,-0.185,0.15
301.44,-0.2,0.13
301.44,-0.195,0.12
301.45,-0.195,0.11
301.45,-0.19,0.095
301.45,-0.21,0.085
301.46,-0.21,0.075
301.46,-0.23,0.065
301.46,-0.23,0.07
301.46,-0.22,0.09
301.47,-0.23,0.075
301.47,-0.22,0.07
301.47,-0.22,0.06
301.47,-0.23,0.055
301.48,-0.235,0.045
301.48,-0.235,0.065
301.48,-0.225,0.065
301.49,-0.23,0.055
301.49,-0.235,0.05
301.49,-0.235,0.05
301.49,-0.23,0.06
301.5,-0.225,0.065
301.5,-0.24,0.065
301.5,-0.24,0.07
301.51,-0.26,0.06
301.51,-0.255,0.065
301.51,-0.25,0.08
301.51,-0.245,0.08
301.52,-0.24,0.09
301.52,-0.245,0.075
301.52,-0.255,0.05
301.52,-0.265,0.07
301.53,-0.25,0.075
301.53,-0.245,0.075
301.53,-0.235,0.07
301.54,-0.24,0.07
301.54,-0.26,0.06
301.54,-0.265,0.065
301.54,-0.255,0.055
301.55,-0.265,0.065
301.55,-0.255,0.05
301.55,-0.265,0.06
301.56,-0.26,0.045
301.56,-0.275,0.045
301.56,-0.255,0.045
301.56,-0.265,0.05
301.57,-0.26,0.04
301.57,-0.265,0.025
301.57,-0.265,0.01
301.57,-0.27,0.015
301.58,-0.285,0
301.58,-0.275,0.01
301.58,-0.275,0.005
301.59,-0.27,-0.005
301.59,-0.275,-0.025
301.59,-0.28,-0.025
301.59,-0.28,-0.03
301.6,-0.275,-0.015
301.6,-0.27,-0.03
301.6,-0.265,-0.04
301.61,-0.285,-0.05
301.61,-0.295,-0.04
301.61,-0.29,-0.04
301.61,-0.275,-0.045
301.62,-0.275,-0.05
301.62,-0.285,-0.065
301.62,-0.285,-0.065
301.62,-0.29,-0.075
301.63,-0.29,-0.07
301.63,-0.285,-0.065
301.63,-0.265,-0.07
301.64,-0.275,-0.09
301.64,-0.285,-0.075
301.64,-0.295,-0.1
301.64,-0.295,-0.09
301.65,-0.27,-0.085
301.65,-0.275,-0.095
301.65,-0.29,-0.105
301.66,-0.295,-0.115
301.66,-0.305,-0.11
301.66,-0.295,-0.105
301.66,-0.285,-0.1
301.67,-0.275,-0.11
301.67,-0.285,-0.11
301.67,-0.285,-0.12
301.67,-0.29,-0.125
301.68,-0.29,-0.125
301.68,-0.28,-0.115
301.68,-0.285,-0.125
301.69,-0.285,-0.135
301.69,-0.295,-0.14
301.69,-0.305,-0.135
301.69,-0.29,-0.13
301.7,-0.285,-0.125
301.7,-0.275,-0.125
301.7,-0.285,-0.135
301.71,-0.3,-0.14
301.71,-0.305,-0.145
301.71,-0.3,-0.14
301.71,-0.295,-0.125
301.72,-0.285,-0.135
301.72,-0.295,-0.145
301.72,-0.28,-0.14
301.72,-0.305,-0.15
301.73,-0.3,-0.14
301.73,-0.275,-0.135
301.73,-0.28,-0.135
301.74,-0.27,-0.14
301.74,-0.285,-0.14
301.74,-0.285,-0.15
301.74,-0.295,-0.13
301.75,-0.28,-0.13
301.75,-0.28,-0.13
301.75,-0.285,-0.145
301.76,-0.285,-0.155
301.76,-0.29,-0.15
301.76,-0.3,-0.14
301.76,-0.29,-0.14
301.77,-0.275,-0.15
301.77,-0.28,-0.16
301.77,-0.285,-0.16
301.77,-0.3,-0.155
301.78,-0.295,-0.145
301.78,-0.275,-0.14
301.78,-0.275,-0.145
301.79,-0.27,-0.155
301.79,-0.285,-0.165
301.79,-0.28,-0.155
301.79,-0.285,-0.155
301.8,-0.275,-0.135
301.8,-0.275,-0.14
301.8,-0.265,-0.145
301.81,-0.285,-0.145
301.81,-0.28,-0.135
301.81,-0.275,-0.125
301.81,-0.275,-0.095
301.82,-0.255,-0.035
301.82,-0.23,0.16
301.82,-0.225,0.525
301.82,-0.2,0.775
301.83,-0.145,0.665
301.83,-0.015,0.435
301.83,0.29,0.285
301.84,0.625,0.23
301.84,0.745,0.185
301.84,0.545,0.125
301.84,0.27,0.085
301.85,0.12,0.02
301.85,0.115,-0.07
301.85,0.125,-0.21
301.86,0.12,-0.37
301.86,0.12,-0.55
301.86,0.13,-0.73
301.86,0.135,-0.915
301.87,0.14,-1.135
301.87,0.15,-1.31
301.87,0.145,-1.475
301.88,0.135,-1.605
301.88,0.125,-1.745
301.88,0.115,-1.865
301.88,0.115,-2.045
301.89,0.11,-2.245
301.89,0.11,-2.44
301.89,0.095,-2.585
301.89,0.085,-2.665
301.9,0.07,-2.75
301.9,0.05,-2.835
301.9,-0.005,-2.925
301.91,-0.05,-2.975
301.91,-0.12,-3.01
301.91,-0.175,-3.025
301.91,-0.225,-3.03
301.92,-0.265,-3.045
301.92,-0.335,-3.07
301.92,-0.425,-3.08
301.92,-0.5,-3.085
301.93,-0.555,-3.07
301.93,-0.55,-3.06
301.93,-0.52,-3.045
301.94,-0.48,-3.055
301.94,-0.46,-3.055
301.94,-0.45,-3.045
301.94,-0.445,-2.995
301.95,-0.425,-2.935
301.95,-0.43,-2.87
301.95,-0.435,-2.785
301.96,-0.43,-2.67
301.96,-0.435,-2.54
301.96,-0.415,-2.36
301.96,-0.4,-2.155
301.97,-0.36,-1.935
301.97,-0.345,-1.705
301.97,-0.32,-1.455
301.97,-0.305,-1.21
301.98,-0.3,-0.965
301.98,-0.305,-0.75
301.98,-0.305,-0.535
301.99,-0.33,-0.35
301.99,-0.355,-0.17
301.99,-0.355,-0.01
301.99,-0.345,0.165
302,-0.345,0.325
302,-0.34,0.45
302,-0.34,0.545
302.01,-0.34,0.615
302.01,-0.345,0.67
302.01,-0.32,0.725
302.01,-0.31,0.78
302.02,-0.315,0.8
302.02,-0.315,0.825
302.02,-0.325,0.875
302.02,-0.32,0.895
302.03,-0.31,0.92
302.03,-0.31,0.96
302.03,-0.31,0.98
302.04,-0.32,1.015
302.04,-0.32,1.015
302.04,-0.325,1.045
302.04,-0.315,1.08
302.05,-0.31,1.11
302.05,-0.305,1.135
302.05,-0.32,1.15
302.06,-0.32,1.175
302.06,-0.335,1.19
302.06,-0.33,1.22
302.06,-0.325,1.25
302.07,-0.325,1.28
302.07,-0.32,1.29
302.07,-0.325,1.315
302.07,-0.335,1.335
302.08,-0.33,1.385
302.08,-0.315,1.42
302.08,-0.31,1.44
302.09,-0.32,1.475
302.09,-0.32,1.495
302.09,-0.335,1.51
302.09,-0.315,1.57
302.1,-0.32,1.585
302.1,-0.305,1.61
302.1,-0.315,1.62
302.11,-0.315,1.625
302.11,-0.315,1.65
302.11,-0.305,1.685
302.11,-0.28,1.705
302.12,-0.26,1.725
302.12,-0.265,1.75
302.12,-0.27,1.74
302.12,-0.27,1.75
302.13,-0.26,1.765
302.13,-0.235,1.78
302.13,-0.24,1.77
302.14,-0.25,1.76
302.14,-0.245,1.75
302.14,-0.245,1.76
302.14,-0.225,1.76
302.15,-0.215,1.77
302.15,-0.21,1.74
302.15,-0.205,1.725
302.16,-0.215,1.705
302.16,-0.225,1.685
302.16,-0.215,1.675
302.16,-0.22,1.65
302.17,-0.205,1.6
302.17,-0.22,1.545
302.17,-0.215,1.495
302.17,-0.205,1.43
302.18,-0.2,1.38
302.18,-0.185,1.34
302.18,-0.18,1.27
302.19,-0.175,1.195
302.19,-0.175,1.125
302.19,-0.185,1.065
302.19,-0.17,1.01
302.2,-0.165,0.95
302.2,-0.17,0.88
302.2,-0.15,0.805
302.21,-0.17,0.735
302.21,-0.18,0.69
302.21,-0.16,0.645
302.21,-0.155,0.595
302.22,-0.145,0.54
302.22,-0.165,0.495
302.22,-0.17,0.44
302.22,-0.19,0.395
302.23,-0.185,0.355
302.23,-0.185,0.33
302.23,-0.185,0.29
302.24,-0.18,0.24
302.24,-0.21,0.21
302.24,-0.205,0.18
302.24,-0.22,0.175
302.25,-0.21,0.145
302.25,-0.21,0.115
302.25,-0.22,0.105
302.26,-0.225,0.085
302.26,-0.245,0.065
302.26,-0.25,0.065
302.26,-0.235,0.06
302.27,-0.235,0.055
302.27,-0.24,0.035
302.27,-0.255,0.02
302.27,-0.265,0.005
302.28,-0.26,0.015
302.28,-0.265,0.02
302.28,-0.25,0.015
302.29,-0.26,0.01
302.29,-0.28,0
302.29,-0.285,-0.005
302.29,-0.29,0.005
302.3,-0.29,0.01
302.3,-0.29,-0.005
302.3,-0.285,-0.005
302.31,-0.295,0
302.31,-0.3,0.005
302.31,-0.285,0.005
302.31,-0.285,0.015
302.32,-0.275,0
302.32,-0.28,0.005
302.32,-0.285,-0.01
302.32,-0.29,-0.005
302.33,-0.275,0
302.33,-0.285,0.015
302.33,-0.28,0.015
302.34,-0.285,0.005
302.34,-0.29,0
302.34,-0.295,-0.005
302.34,-0.305,0.015
302.35,-0.29,0.02
302.35,-0.285,0.015
302.35,-0.275,0.01
302.36,-0.295,-0.005
302.36,-0.29,0
302.36,-0.295,0.02
302.36,-0.285,0.01
302.37,-0.285,-0.01
302.37,-0.27,-0.015
302.37,-0.29,-0.02
302.38,-0.295,-0.02
302.38,-0.295,-0.005
302.38,-0.285,0
302.38,-0.3,-0.01
302.39,-0.31,-0.03
302.39,-0.325,-0.035
302.39,-0.335,-0.04
302.39,-0.32,-0.035
302.4,-0.325,-0.025
302.4,-0.31,-0.04
302.4,-0.295,-0.045
302.41,-0.3,-0.055
302.41,-0.305,-0.07
302.41,-0.29,-0.065
302.41,-0.295,-0.06
302.42,-0.31,-0.075
302.42,-0.32,-0.065
302.42,-0.325,-0.085
302.42,-0.335,-0.085
302.43,-0.32,-0.08
302.43,-0.305,-0.08
302.43,-0.3,-0.095
302.44,-0.305,-0.1
302.44,-0.3,-0.105
302.44,-0.315,-0.11
302.44,-0.31,-0.1
302.45,-0.315,-0.1
302.45,-0.315,-0.105
302.45,-0.32,-0.12
302.46,-0.34,-0.13
302.46,-0.34,-0.125
302.46,-0.33,-0.125
302.46,-0.3,-0.11
302.47,-0.295,-0.12
302.47,-0.295,-0.135
302.47,-0.305,-0.13
302.47,-0.305,-0.15
302.48,-0.3,-0.145
302.48,-0.29,-0.125
302.48,-0.285,-0.135
302.49,-0.295,-0.15
302.49,-0.305,-0.165
302.49,-0.31,-0.16
302.49,-0.31,-0.155
302.5,-0.31,-0.135
302.5,-0.305,-0.15
302.5,-0.315,-0.16
302.51,-0.315,-0.16
302.51,-0.33,-0.16
302.51,-0.315,-0.155
302.51,-0.305,-0.15
302.52,-0.3,-0.155
302.52,-0.295,-0.16
302.52,-0.3,-0.17
302.52,-0.315,-0.18
302.53,-0.315,-0.16
302.53,-0.315,-0.15
302.53,-0.295,-0.165
302.54,-0.305,-0.175
302.54,-0.31,-0.19
302.54,-0.325,-0.185
302.54,-0.33,-0.175
302.55,-0.315,-0.16
302.55,-0.31,-0.17
302.55,-0.31,-0.175
302.56,-0.305,-0.18
302.56,-0.32,-0.185
302.56,-0.305,-0.175
302.56,-0.305,-0.165
302.57,-0.3,-0.165
302.57,-0.31,-0.175
302.57,-0.315,-0.175
302.57,-0.335,-0.19
302.58,-0.325,-0.17
302.58,-0.31,-0.16
302.58,-0.29,-0.16
302.59,-0.285,-0.165
302.59,-0.285,-0.175
302.59,-0.29,-0.185
302.59,-0.28,-0.165
302.6,-0.285,-0.16
302.6,-0.28,-0.16
302.6,-0.285,-0.17
302.61,-0.285,-0.175
302.61,-0.3,-0.175
302.61,-0.295,-0.155
302.61,-0.28,-0.16
302.62,-0.275,-0.16
302.62,-0.27,-0.165
302.62,-0.28,-0.18
302.62,-0.285,-0.17
302.63,-0.27,-0.17
302.63,-0.27,-0.175
302.63,-0.27,-0.17
302.64,-0.28,-0.18
302.64,-0.285,-0.175
302.64,-0.28,-0.175
302.64,-0.275,-0.16
302.65,-0.265,-0.14
302.65,-0.26,-0.115
302.65,-0.26,-0.08
302.66,-0.25,0.04
302.66,-0.24,0.345
302.66,-0.19,0.705
302.66,-0.145,0.815
302.67,-0.07,0.595
302.67,0.1,0.37
302.67,0.42,0.245
302.67,0.725,0.21
302.68,0.745,0.15
302.68,0.51,0.115
302.68,0.24,0.04
302.69,0.125,-0.06
302.69,0.11,-0.16
302.69,0.11,-0.305
302.69,0.125,-0.435
302.7,0.125,-0.605
302.7,0.135,-0.83
302.7,0.135,-1.045
302.71,0.12,-1.26
302.71,0.125,-1.44
302.71,0.125,-1.59
302.71,0.12,-1.735
302.72,0.11,-1.875
302.72,0.095,-2.035
302.72,0.08,-2.21
302.72,0.095,-2.395
302.73,0.115,-2.53
302.73,0.1,-2.62
302.73,0.085,-2.71
302.74,0.065,-2.79
302.74,0.025,-2.875
302.74,-0.04,-2.925
302.74,-0.065,-2.985
302.75,-0.105,-2.995
302.75,-0.15,-3.04
302.75,-0.21,-3.05
302.76,-0.27,-3.07
302.76,-0.335,-3.07
302.76,-0.4,-3.08
302.76,-0.47,-3.07
302.77,-0.55,-3.07
302.77,-0.59,-3.09
302.77,-0.595,-3.08
302.77,-0.58,-3.07
302.78,-0.545,-3.035
302.78,-0.5,-3.03
302.78,-0.495,-3.005
302.79,-0.49,-2.96
302.79,-0.485,-2.905
302.79,-0.495,-2.805
302.79,-0.485,-2.69
302.8,-0.475,-2.525
302.8,-0.45,-2.355
302.8,-0.44,-2.165
302.81,-0.43,-1.945
302.81,-0.4,-1.695
302.81,-0.37,-1.44
302.81,-0.345,-1.185
302.82,-0.335,-0.96
302.82,-0.34,-0.76
302.82,-0.345,-0.585
302.82,-0.34,-0.4
302.83,-0.325,-0.21
302.83,-0.325,-0.045
302.83,-0.35,0.105
302.84,-0.37,0.25
302.84,-0.37,0.385
302.84,-0.365,0.51
302.84,-0.34,0.595
302.85,-0.31,0.66
302.85,-0.31,0.695
302.85,-0.3,0.735
302.86,-0.315,0.755
302.86,-0.32,0.79
302.86,-0.32,0.825
302.86,-0.305,0.86
302.87,-0.29,0.89
302.87,-0.29,0.91
302.87,-0.285,0.935
302.88,-0.275,0.95
302.88,-0.265,0.98
302.88,-0.27,1.015
302.88,-0.275,1.02
302.89,-0.29,1.04
302.89,-0.29,1.06
302.89,-0.29,1.09
302.89,-0.28,1.105
302.9,-0.265,1.14
302.9,-0.275,1.155
302.9,-0.29,1.155
302.91,-0.3,1.185
302.91,-0.28,1.215
302.91,-0.28,1.245
302.91,-0.26,1.285
302.92,-0.26,1.305
302.92,-0.265,1.33
302.92,-0.275,1.345
302.92,-0.29,1.385
302.93,-0.275,1.425
302.93,-0.27,1.455
302.93,-0.265,1.49
302.94,-0.275,1.495
302.94,-0.285,1.52
302.94,-0.29,1.54
302.94,-0.255,1.56
302.95,-0.215,1.585
302.95,-0.19,1.6
302.95,-0.195,1.635
302.96,-0.195,1.645
302.96,-0.215,1.66
302.96,-0.215,1.67
302.96,-0.2,1.69
302.97,-0.195,1.7
302.97,-0.19,1.705
302.97,-0.18,1.705
302.97,-0.185,1.705
302.98,-0.195,1.725
302.98,-0.205,1.73
302.98,-0.215,1.725
302.99,-0.185,1.715
302.99,-0.15,1.72
302.99,-0.13,1.725
302.99,-0.12,1.72
303,-0.11,1.715
303,-0.125,1.7
303,-0.145,1.665
303.01,-0.165,1.635
303.01,-0.175,1.6
303.01,-0.17,1.575
303.01,-0.15,1.53
303.02,-0.12,1.485
303.02,-0.135,1.43
303.02,-0.155,1.38
303.02,-0.15,1.325
303.03,-0.15,1.285
303.03,-0.115,1.235
303.03,-0.09,1.175
303.04,-0.105,1.105
303.04,-0.11,1.025
303.04,-0.11,0.975
303.04,-0.11,0.92
303.05,-0.09,0.87
303.05,-0.085,0.805
303.05,-0.1,0.74
303.06,-0.12,0.685
303.06,-0.14,0.64
303.06,-0.125,0.59
303.06,-0.125,0.545
303.07,-0.11,0.485
303.07,-0.12,0.44
303.07,-0.13,0.38
303.07,-0.145,0.335
303.08,-0.155,0.32
303.08,-0.14,0.29
303.08,-0.14,0.245
303.09,-0.15,0.205
303.09,-0.155,0.18
303.09,-0.16,0.165
303.09,-0.165,0.145
303.1,-0.18,0.13
303.1,-0.19,0.105
303.1,-0.21,0.095
303.11,-0.235,0.075
303.11,-0.25,0.06
303.11,-0.24,0.05
303.11,-0.21,0.05
303.12,-0.195,0.04
303.12,-0.2,0.025
303.12,-0.22,0.015
303.12,-0.23,0.01
303.13,-0.25,0.01
303.13,-0.235,0.02
303.13,-0.235,0.015
303.14,-0.245,-0.005
303.14,-0.25,0
303.14,-0.26,0.005
303.14,-0.265,0.015
303.15,-0.245,0.03
303.15,-0.23,0.03
303.15,-0.235,0.01
303.16,-0.24,0
303.16,-0.255,0.01
303.16,-0.25,0.015
303.16,-0.235,0.025
303.17,-0.215,0.02
303.17,-0.215,0.005
303.17,-0.21,0.01
303.17,-0.225,0.01
303.18,-0.215,0.015
303.18,-0.215,0.035
303.18,-0.21,0.03
303.19,-0.225,0.015
303.19,-0.255,0.02
303.19,-0.275,0.015
303.19,-0.285,0.015
303.2,-0.27,0.03
303.2,-0.245,0.04
303.2,-0.235,0.025
303.21,-0.24,0.02
303.21,-0.25,0.01
303.21,-0.23,0.025
303.21,-0.23,0.035
303.22,-0.215,0.015
303.22,-0.22,0.01
303.22,-0.23,0.01
303.22,-0.22,0.005
303.23,-0.23,-0.005
303.23,-0.235,0.01
303.23,-0.25,0.01
303.24,-0.26,-0.005
303.24,-0.27,-0.02
303.24,-0.26,-0.01
303.24,-0.25,-0.01
303.25,-0.24,-0.01
303.25,-0.25,-0.01
303.25,-0.25,-0.03
303.26,-0.25,-0.04
303.26,-0.26,-0.035
303.26,-0.265,-0.035
303.26,-0.26,-0.03
303.27,-0.25,-0.03
303.27,-0.25,-0.06
303.27,-0.255,-0.055
303.27,-0.245,-0.065
303.28,-0.255,-0.055
303.28,-0.255,-0.065
303.28,-0.235,-0.065
303.29,-0.245,-0.07
303.29,-0.245,-0.08
303.29,-0.245,-0.09
303.29,-0.24,-0.085
303.3,-0.235,-0.075
303.3,-0.25,-0.095
303.3,-0.255,-0.095
303.31,-0.27,-0.115
303.31,-0.265,-0.115
303.31,-0.255,-0.105
303.31,-0.25,-0.095
303.32,-0.26,-0.095
303.32,-0.28,-0.115
303.32,-0.27,-0.125
303.32,-0.275,-0.12
303.33,-0.27,-0.11
303.33,-0.27,-0.105
303.33,-0.265,-0.11
303.34,-0.285,-0.12
303.34,-0.28,-0.135
303.34,-0.285,-0.125
303.34,-0.27,-0.13
303.35,-0.26,-0.12
303.35,-0.255,-0.135
303.35,-0.255,-0.135
303.36,-0.265,-0.145
303.36,-0.28,-0.15
303.36,-0.265,-0.145
303.36,-0.27,-0.135
303.37,-0.255,-0.155
303.37,-0.26,-0.15
303.37,-0.26,-0.155
303.38,-0.27,-0.16
303.38,-0.265,-0.145
303.38,-0.255,-0.145
303.38,-0.26,-0.145
303.39,-0.26,-0.15
303.39,-0.28,-0.165
303.39,-0.28,-0.16
303.39,-0.285,-0.16
303.4,-0.265,-0.145
303.4,-0.255,-0.145
303.4,-0.27,-0.15
303.41,-0.275,-0.17
303.41,-0.285,-0.16
303.41,-0.27,-0.155
303.41,-0.265,-0.155
303.42,-0.265,-0.155
303.42,-0.26,-0.17
303.42,-0.28,-0.165
303.42,-0.275,-0.17
303.43,-0.285,-0.155
303.43,-0.265,-0.145
303.43,-0.25,-0.145
303.44,-0.255,-0.155
303.44,-0.27,-0.17
303.44,-0.275,-0.16
303.44,-0.275,-0.155
303.45,-0.265,-0.145
303.45,-0.27,-0.16
303.45,-0.26,-0.16
303.46,-0.275,-0.175
303.46,-0.285,-0.165
303.46,-0.26,-0.15
303.46,-0.28,-0.16
303.47,-0.27,-0.145
303.47,-0.27,-0.16
303.47,-0.285,-0.175
303.47,-0.29,-0.17
303.48,-0.27,-0.155
303.48,-0.25,-0.145
303.48,-0.245,-0.15
303.49,-0.255,-0.15
303.49,-0.255,-0.15
303.49,-0.27,-0.13
303.49,-0.255,-0.1
303.5,-0.24,-0.04
303.5,-0.225,0.105
303.5,-0.205,0.395
303.51,-0.19,0.73
303.51,-0.145,0.845
303.51,-0.075,0.665
303.51,0.09,0.435
303.52,0.415,0.325
303.52,0.74,0.27
303.52,0.835,0.235
303.52,0.58,0.19
303.53,0.29,0.16
303.53,0.17,0.15
303.53,0.15,0.1
303.54,0.175,0.03
303.54,0.165,-0.07
303.54,0.165,-0.185
303.54,0.175,-0.32
303.55,0.185,-0.495
303.55,0.22,-0.705
303.55,0.22,-0.915
303.56,0.215,-1.11
303.56,0.215,-1.335
303.56,0.22,-1.545
303.56,0.215,-1.75
303.57,0.21,-1.925
303.57,0.195,-2.095
303.57,0.18,-2.275
303.57,0.18,-2.41
303.58,0.175,-2.5
303.58,0.165,-2.59
303.58,0.155,-2.68
303.59,0.12,-2.78
303.59,0.08,-2.895
303.59,0.03,-2.94
303.59,-0.025,-2.98
303.6,-0.1,-3
303.6,-0.155,-3.025
303.6,-0.22,-3.04
303.61,-0.275,-3.065
303.61,-0.34,-3.06
303.61,-0.43,-3.06
303.61,-0.515,-3.065
303.62,-0.565,-3.065
303.62,-0.59,-3.075
303.62,-0.585,-3.07
303.62,-0.56,-3.055
303.63,-0.53,-3.035
303.63,-0.515,-3.02
303.63,-0.52,-2.98
303.64,-0.55,-2.94
303.64,-0.56,-2.875
303.64,-0.57,-2.78
303.64,-0.565,-2.64
303.65,-0.54,-2.505
303.65,-0.515,-2.345
303.65,-0.485,-2.185
303.66,-0.46,-1.98
303.66,-0.465,-1.73
303.66,-0.425,-1.49
303.66,-0.41,-1.27
303.67,-0.415,-1.055
303.67,-0.405,-0.875
303.67,-0.405,-0.69
303.67,-0.405,-0.475
303.68,-0.405,-0.28
303.68,-0.4,-0.12
303.68,-0.415,0.025
303.69,-0.435,0.13
303.69,-0.445,0.265
303.69,-0.43,0.395
303.69,-0.41,0.51
303.7,-0.39,0.595
303.7,-0.39,0.645
303.7,-0.385,0.68
303.71,-0.39,0.705
303.71,-0.385,0.745
303.71,-0.37,0.79
303.71,-0.36,0.82
303.72,-0.365,0.855
303.72,-0.375,0.88
303.72,-0.38,0.895
303.72,-0.385,0.91
303.73,-0.36,0.96
303.73,-0.37,0.985
303.73,-0.375,1.01
303.74,-0.39,1.01
303.74,-0.39,1.04
303.74,-0.395,1.055
303.74,-0.39,1.085
303.75,-0.38,1.13
303.75,-0.375,1.155
303.75,-0.38,1.155
303.76,-0.39,1.185
303.76,-0.39,1.2
303.76,-0.39,1.255
303.76,-0.385,1.28
303.77,-0.375,1.305
303.77,-0.385,1.335
303.77,-0.39,1.36
303.77,-0.39,1.405
303.78,-0.38,1.445
303.78,-0.375,1.465
303.78,-0.375,1.495
303.79,-0.385,1.505
303.79,-0.38,1.515
303.79,-0.38,1.545
303.79,-0.365,1.575
303.8,-0.34,1.605
303.8,-0.335,1.625
303.8,-0.345,1.645
303.81,-0.365,1.665
303.81,-0.35,1.685
303.81,-0.335,1.705
303.81,-0.315,1.73
303.82,-0.335,1.735
303.82,-0.325,1.735
303.82,-0.33,1.745
303.82,-0.33,1.76
303.83,-0.31,1.78
303.83,-0.3,1.8
303.83,-0.3,1.8
303.84,-0.3,1.79
303.84,-0.3,1.8
303.84,-0.295,1.8
303.84,-0.285,1.815
303.85,-0.265,1.815
303.85,-0.28,1.8
303.85,-0.285,1.775
303.86,-0.29,1.74
303.86,-0.295,1.715
303.86,-0.265,1.695
303.86,-0.25,1.645
303.87,-0.235,1.61
303.87,-0.24,1.55
303.87,-0.24,1.49
303.88,-0.24,1.45
303.88,-0.22,1.395
303.88,-0.205,1.355
303.88,-0.195,1.28
303.89,-0.195,1.2
303.89,-0.195,1.135
303.89,-0.19,1.07
303.89,-0.175,1.02
303.9,-0.16,0.965
303.9,-0.16,0.91
303.9,-0.17,0.85
303.91,-0.175,0.77
303.91,-0.18,0.72
303.91,-0.18,0.68
303.91,-0.175,0.63
303.92,-0.165,0.585
303.92,-0.185,0.51
303.92,-0.205,0.465
303.92,-0.195,0.43
303.93,-0.18,0.41
303.93,-0.185,0.37
303.93,-0.19,0.33
303.94,-0.205,0.29
303.94,-0.215,0.25
303.94,-0.225,0.23
303.94,-0.225,0.21
303.95,-0.235,0.205
303.95,-0.23,0.195
303.95,-0.225,0.165
303.96,-0.245,0.14
303.96,-0.25,0.125
303.96,-0.24,0.13
303.96,-0.24,0.12
303.97,-0.235,0.11
303.97,-0.25,0.11
303.97,-0.26,0.09
303.97,-0.27,0.085
303.98,-0.265,0.1
303.98,-0.26,0.095
303.98,-0.26,0.095
303.99,-0.26,0.08
303.99,-0.27,0.07
303.99,-0.27,0.075
303.99,-0.275,0.075
304,-0.26,0.09
304,-0.265,0.085
304,-0.26,0.085
304.01,-0.27,0.055
304.01,-0.285,0.07
304.01,-0.27,0.08
304.01,-0.275,0.1
304.02,-0.26,0.095
304.02,-0.275,0.085
304.02,-0.28,0.075
304.02,-0.285,0.085
304.03,-0.275,0.09
304.03,-0.275,0.1
304.03,-0.27,0.085
304.04,-0.285,0.085
304.04,-0.285,0.075
304.04,-0.285,0.08
304.04,-0.28,0.09
304.05,-0.285,0.09
304.05,-0.28,0.095
304.05,-0.275,0.08
304.06,-0.3,0.07
304.06,-0.31,0.08
304.06,-0.305,0.075
304.06,-0.295,0.085
304.07,-0.285,0.08
304.07,-0.295,0.075
304.07,-0.3,0.06
304.07,-0.305,0.06
304.08,-0.295,0.065
304.08,-0.3,0.065
304.08,-0.295,0.055
304.09,-0.32,0.055
304.09,-0.325,0.035
304.09,-0.32,0.03
304.09,-0.305,0.03
304.1,-0.315,0.035
304.1,-0.31,0.025
304.1,-0.315,0.01
304.11,-0.33,0.005
304.11,-0.335,0.01
304.11,-0.33,0.01
304.11,-0.33,0.005
304.12,-0.32,0
304.12,-0.33,0
304.12,-0.335,-0.025
304.12,-0.325,-0.015
304.13,-0.33,-0.015
304.13,-0.32,-0.005
304.13,-0.325,-0.02
304.14,-0.335,-0.025
304.14,-0.34,-0.05
304.14,-0.35,-0.04
304.14,-0.335,-0.035
304.15,-0.33,-0.04
304.15,-0.345,-0.045
304.15,-0.34,-0.06
304.16,-0.345,-0.07
304.16,-0.35,-0.065
304.16,-0.345,-0.05
304.16,-0.345,-0.055
304.17,-0.34,-0.055
304.17,-0.335,-0.08
304.17,-0.345,-0.095
304.17,-0.35,-0.085
304.18,-0.345,-0.08
304.18,-0.335,-0.07
304.18,-0.35,-0.08
304.19,-0.34,-0.1
304.19,-0.34,-0.1
304.19,-0.35,-0.105
304.19,-0.335,-0.09
304.2,-0.335,-0.085
304.2,-0.345,-0.095
304.2,-0.34,-0.105
304.21,-0.355,-0.115
304.21,-0.36,-0.11
304.21,-0.37,-0.095
304.21,-0.345,-0.095
304.22,-0.335,-0.09
304.22,-0.345,-0.1
304.22,-0.35,-0.12
304.22,-0.36,-0.115
304.23,-0.35,-0.1
304.23,-0.345,-0.095
304.23,-0.335,-0.11
304.24,-0.35,-0.115
304.24,-0.345,-0.13
304.24,-0.355,-0.125
304.24,-0.345,-0.11
304.25,-0.34,-0.11
304.25,-0.335,-0.115
304.25,-0.34,-0.125
304.26,-0.345,-0.115
304.26,-0.365,-0.12
304.26,-0.35,-0.115
304.26,-0.35,-0.1
304.27,-0.34,-0.105
304.27,-0.35,-0.125
304.27,-0.36,-0.13
304.27,-0.365,-0.14
304.28,-0.35,-0.125
304.28,-0.345,-0.115
304.28,-0.34,-0.135
304.29,-0.33,-0.13
304.29,-0.33,-0.14
304.29,-0.345,-0.13
304.29,-0.34,-0.13
304.3,-0.33,-0.125
304.3,-0.33,-0.125
304.3,-0.345,-0.13
304.31,-0.34,-0.145
304.31,-0.34,-0.14
304.31,-0.33,-0.115
304.31,-0.34,-0.12
304.32,-0.33,-0.115
304.32,-0.33,-0.125
304.32,-0.325,-0.13
304.32,-0.325,-0.12
304.33,-0.31,-0.105
304.33,-0.305,-0.1
304.33,-0.315,-0.07
304.34,-0.3,-0.045
304.34,-0.305,0.085
304.34,-0.29,0.405
304.34,-0.25,0.8
304.35,-0.215,0.93
304.35,-0.16,0.73
304.35,-0.035,0.465
304.36,0.255,0.325
304.36,0.605,0.28
304.36,0.755,0.245
304.36,0.575,0.18
304.37,0.295,0.12
304.37,0.11,0.045
304.37,0.075,-0.045
304.38,0.085,-0.155
304.38,0.09,-0.295
304.38,0.1,-0.435
304.38,0.105,-0.625
304.39,0.1,-0.835
304.39,0.1,-1.04
304.39,0.09,-1.2
304.39,0.12,-1.345
304.4,0.125,-1.47
304.4,0.12,-1.61
304.4,0.1,-1.765
304.41,0.07,-1.94
304.41,0.08,-2.13
304.41,0.09,-2.32
304.41,0.08,-2.465
304.42,0.07,-2.575
304.42,0.045,-2.67
304.42,0.01,-2.765
304.42,-0.045,-2.835
304.43,-0.07,-2.905
304.43,-0.125,-2.945
304.43,-0.18,-2.965
304.44,-0.235,-3.005
304.44,-0.3,-3.03
304.44,-0.365,-3.035
304.44,-0.43,-3.04
304.45,-0.5,-3.03
304.45,-0.575,-3.035
304.45,-0.615,-3.035
304.46,-0.595,-3.045
304.46,-0.565,-3.03
304.46,-0.51,-3.015
304.46,-0.47,-2.975
304.47,-0.465,-2.96
304.47,-0.475,-2.9
304.47,-0.485,-2.835
304.47,-0.48,-2.73
304.48,-0.48,-2.61
304.48,-0.465,-2.45
304.48,-0.455,-2.28
304.49,-0.445,-2.08
304.49,-0.43,-1.875
304.49,-0.405,-1.64
304.49,-0.36,-1.39
304.5,-0.33,-1.15
304.5,-0.335,-0.925
304.5,-0.365,-0.735
304.51,-0.385,-0.56
304.51,-0.385,-0.355
304.51,-0.39,-0.165
304.51,-0.39,-0.005
304.52,-0.395,0.155
304.52,-0.395,0.3
304.52,-0.405,0.43
304.52,-0.4,0.55
304.53,-0.38,0.635
304.53,-0.365,0.69
304.53,-0.365,0.735
304.54,-0.37,0.775
304.54,-0.37,0.81
304.54,-0.37,0.85
304.54,-0.37,0.885
304.55,-0.36,0.935
304.55,-0.355,0.96
304.55,-0.365,0.985
304.56,-0.36,0.995
304.56,-0.365,1.02
304.56,-0.37,1.055
304.56,-0.36,1.09
304.57,-0.36,1.105
304.57,-0.355,1.125
304.57,-0.375,1.15
304.57,-0.375,1.18
304.58,-0.365,1.21
304.58,-0.36,1.24
304.58,-0.35,1.265
304.59,-0.365,1.3
304.59,-0.37,1.31
304.59,-0.38,1.35
304.59,-0.365,1.375
304.6,-0.35,1.4
304.6,-0.355,1.42
304.6,-0.36,1.42
304.61,-0.36,1.44
304.61,-0.345,1.47
304.61,-0.35,1.49
304.61,-0.33,1.52
304.62,-0.32,1.54
304.62,-0.33,1.555
304.62,-0.32,1.565
304.62,-0.33,1.595
304.63,-0.315,1.615
304.63,-0.315,1.64
304.63,-0.315,1.65
304.64,-0.31,1.665
304.64,-0.33,1.68
304.64,-0.33,1.705
304.64,-0.31,1.73
304.65,-0.3,1.755
304.65,-0.295,1.775
304.65,-0.295,1.78
304.66,-0.305,1.795
304.66,-0.31,1.805
304.66,-0.3,1.855
304.66,-0.295,1.87
304.67,-0.3,1.86
304.67,-0.31,1.865
304.67,-0.315,1.84
304.67,-0.31,1.83
304.68,-0.305,1.84
304.68,-0.285,1.835
304.68,-0.29,1.81
304.69,-0.295,1.765
304.69,-0.305,1.73
304.69,-0.29,1.7
304.69,-0.275,1.67
304.7,-0.27,1.635
304.7,-0.265,1.59
304.7,-0.26,1.525
304.71,-0.27,1.47
304.71,-0.285,1.415
304.71,-0.27,1.375
304.71,-0.255,1.32
304.72,-0.245,1.255
304.72,-0.245,1.18
304.72,-0.235,1.115
304.72,-0.23,1.065
304.73,-0.21,1.01
304.73,-0.2,0.945
304.73,-0.185,0.905
304.74,-0.195,0.835
304.74,-0.205,0.77
304.74,-0.21,0.71
304.74,-0.205,0.67
304.75,-0.205,0.62
304.75,-0.2,0.57
304.75,-0.21,0.51
304.76,-0.225,0.46
304.76,-0.215,0.435
304.76,-0.21,0.39
304.76,-0.2,0.375
304.77,-0.205,0.335
304.77,-0.22,0.29
304.77,-0.225,0.25
304.77,-0.225,0.235
304.78,-0.22,0.225
304.78,-0.23,0.2
304.78,-0.235,0.175
304.79,-0.245,0.145
304.79,-0.255,0.13
304.79,-0.25,0.12
304.79,-0.24,0.12
304.8,-0.23,0.105
304.8,-0.225,0.095
304.8,-0.24,0.075
304.81,-0.25,0.075
304.81,-0.255,0.065
304.81,-0.255,0.06
304.81,-0.25,0.065
304.82,-0.255,0.06
304.82,-0.28,0.04
304.82,-0.29,0.02
304.82,-0.295,0.03
304.83,-0.29,0.04
304.83,-0.275,0.045
304.83,-0.27,0.04
304.84,-0.275,0.035
304.84,-0.28,0.03
304.84,-0.285,0.03
304.84,-0.275,0.035
304.85,-0.285,0.045
304.85,-0.285,0.035
304.85,-0.28,0.03
304.86,-0.295,0.015
304.86,-0.295,0.02
304.86,-0.295,0.04
304.86,-0.285,0.05
304.87,-0.29,0.045
304.87,-0.3,0.03
304.87,-0.305,0.025
304.88,-0.31,0.03
304.88,-0.3,0.04
304.88,-0.28,0.04
304.88,-0.28,0.035
304.89,-0.28,0.03
304.89,-0.285,0.015
304.89,-0.295,0.025
304.89,-0.3,0.04
304.9,-0.295,0.04
304.9,-0.3,0.03
304.9,-0.305,0.03
304.91,-0.295,0.015
304.91,-0.3,0.02
304.91,-0.305,0.025
304.91,-0.3,0.03
304.92,-0.285,0.025
304.92,-0.29,0
304.92,-0.295,-0.005
304.92,-0.31,-0.005
304.93,-0.29,0.01
304.93,-0.295,0.02
304.93,-0.295,-0.005
304.94,-0.305,-0.015
304.94,-0.32,-0.02
304.94,-0.325,-0.03
304.94,-0.32,-0.015
304.95,-0.31,-0.025
304.95,-0.32,-0.025
304.95,-0.335,-0.05
304.96,-0.32,-0.05
304.96,-0.335,-0.055
304.96,-0.325,-0.035
304.96,-0.325,-0.035
304.97,-0.325,-0.035
304.97,-0.325,-0.045
304.97,-0.32,-0.055
304.97,-0.325,-0.06
304.98,-0.315,-0.06
304.98,-0.31,-0.07
304.98,-0.295,-0.065
304.99,-0.305,-0.085
304.99,-0.315,-0.09
304.99,-0.33,-0.095
304.99,-0.34,-0.085
305,-0.335,-0.085
305,-0.335,-0.095
305,-0.335,-0.095
305.01,-0.34,-0.1
305.01,-0.34,-0.1
305.01,-0.335,-0.095
305.01,-0.325,-0.1
305.02,-0.33,-0.1
305.02,-0.34,-0.105
305.02,-0.35,-0.13
305.02,-0.345,-0.135
305.03,-0.34,-0.125
305.03,-0.33,-0.12
305.03,-0.34,-0.115
305.04,-0.34,-0.135
305.04,-0.365,-0.145
305.04,-0.37,-0.14
305.04,-0.355,-0.135
305.05,-0.345,-0.135
305.05,-0.35,-0.12
305.05,-0.335,-0.145
305.06,-0.345,-0.145
305.06,-0.34,-0.14
305.06,-0.32,-0.135
305.06,-0.305,-0.125
305.07,-0.315,-0.135
305.07,-0.325,-0.15
305.07,-0.325,-0.15
305.07,-0.335,-0.155
305.08,-0.325,-0.15
305.08,-0.315,-0.135
305.08,-0.31,-0.145
305.09,-0.325,-0.15
305.09,-0.335,-0.165
305.09,-0.335,-0.17
305.09,-0.335,-0.14
305.1,-0.33,-0.155
305.1,-0.33,-0.145
305.1,-0.335,-0.155
305.11,-0.335,-0.165
305.11,-0.35,-0.16
305.11,-0.335,-0.15
305.11,-0.33,-0.145
305.12,-0.335,-0.145
305.12,-0.335,-0.165
305.12,-0.335,-0.165
305.12,-0.33,-0.155
305.13,-0.325,-0.16
305.13,-0.315,-0.145
305.13,-0.295,-0.155
305.14,-0.32,-0.17
305.14,-0.315,-0.185
305.14,-0.315,-0.165
305.14,-0.315,-0.15
305.15,-0.305,-0.155
305.15,-0.315,-0.155
305.15,-0.32,-0.17
305.16,-0.34,-0.175
305.16,-0.345,-0.165
305.16,-0.33,-0.155
305.16,-0.315,-0.155
305.17,-0.315,-0.165
305.17,-0.3,-0.175
305.17,-0.31,-0.18
305.17,-0.31,-0.18
305.18,-0.305,-0.165
305.18,-0.295,-0.16
305.18,-0.3,-0.16
305.19,-0.305,-0.17
305.19,-0.305,-0.185
305.19,-0.29,-0.15
305.19,-0.275,-0.12
305.2,-0.275,-0.055
305.2,-0.275,0.1
305.2,-0.27,0.4
305.21,-0.255,0.75
305.21,-0.225,0.825
305.21,-0.16,0.625
305.21,0,0.4
305.22,0.315,0.295
305.22,0.655,0.235
305.22,0.76,0.175
305.22,0.565,0.125
305.23,0.29,0.07
305.23,0.16,-0.005
305.23,0.14,-0.1
305.24,0.14,-0.255
305.24,0.12,-0.41
305.24,0.125,-0.57
305.24,0.125,-0.76
305.25,0.14,-0.96
305.25,0.14,-1.17
305.25,0.145,-1.35
305.26,0.145,-1.5
305.26,0.12,-1.64
305.26,0.115,-1.755
305.26,0.1,-1.875
305.27,0.07,-2.04
305.27,0.07,-2.225
305.27,0.075,-2.42
305.27,0.085,-2.545
305.28,0.1,-2.62
305.28,0.08,-2.715
305.28,0.05,-2.805
305.29,-0.015,-2.885
305.29,-0.085,-2.96
305.29,-0.16,-2.99
305.29,-0.21,-3.005
305.3,-0.28,-3.035
305.3,-0.31,-3.05
305.3,-0.37,-3.065
305.31,-0.455,-3.085
305.31,-0.545,-3.08
305.31,-0.62,-3.07
305.31,-0.645,-3.07
305.32,-0.63,-3.07
305.32,-0.62,-3.055
305.32,-0.59,-3.06
305.32,-0.575,-3.025
305.33,-0.57,-2.98
305.33,-0.565,-2.92
305.33,-0.57,-2.83
305.34,-0.565,-2.745
305.34,-0.55,-2.61
305.34,-0.54,-2.45
305.34,-0.49,-2.27
305.35,-0.45,-2.075
305.35,-0.42,-1.855
305.35,-0.39,-1.63
305.36,-0.37,-1.41
305.36,-0.355,-1.145
305.36,-0.345,-0.92
305.36,-0.34,-0.7
305.37,-0.35,-0.495
305.37,-0.355,-0.31
305.37,-0.38,-0.145
305.38,-0.395,0.02
305.38,-0.39,0.175
305.38,-0.375,0.31
305.38,-0.37,0.435
305.39,-0.355,0.525
305.39,-0.335,0.58
305.39,-0.33,0.645
305.39,-0.3,0.685
305.4,-0.29,0.735
305.4,-0.285,0.755
305.4,-0.29,0.78
305.41,-0.305,0.81
305.41,-0.31,0.845
305.41,-0.285,0.875
305.41,-0.27,0.915
305.42,-0.265,0.935
305.42,-0.27,0.95
305.42,-0.27,0.98
305.42,-0.29,0.995
305.43,-0.295,1.055
305.43,-0.295,1.07
305.43,-0.28,1.09
305.44,-0.265,1.11
305.44,-0.26,1.125
305.44,-0.265,1.155
305.44,-0.24,1.165
305.45,-0.23,1.2
305.45,-0.23,1.21
305.45,-0.23,1.215
305.46,-0.22,1.24
305.46,-0.22,1.265
305.46,-0.22,1.3
305.46,-0.225,1.325
305.47,-0.23,1.335
305.47,-0.24,1.34
305.47,-0.255,1.345
305.47,-0.245,1.38
305.48,-0.24,1.405
305.48,-0.195,1.435
305.48,-0.195,1.44
305.49,-0.21,1.47
305.49,-0.225,1.495
305.49,-0.255,1.53
305.49,-0.26,1.575
305.5,-0.26,1.61
305.5,-0.26,1.655
305.5,-0.25,1.665
305.51,-0.24,1.685
305.51,-0.24,1.72
305.51,-0.235,1.73
305.51,-0.245,1.75
305.52,-0.245,1.76
305.52,-0.225,1.77
305.52,-0.205,1.76
305.52,-0.185,1.765
305.53,-0.18,1.78
305.53,-0.175,1.775
305.53,-0.175,1.76
305.54,-0.17,1.725
305.54,-0.165,1.705
305.54,-0.165,1.68
305.54,-0.165,1.665
305.55,-0.17,1.645
305.55,-0.16,1.61
305.55,-0.155,1.57
305.56,-0.14,1.5
305.56,-0.15,1.46
305.56,-0.125,1.415
305.56,-0.115,1.365
305.57,-0.095,1.305
305.57,-0.09,1.245
305.57,-0.105,1.175
305.57,-0.115,1.11
305.58,-0.14,1.065
305.58,-0.12,1.005
305.58,-0.095,0.945
305.59,-0.08,0.875
305.59,-0.085,0.81
305.59,-0.09,0.745
305.59,-0.08,0.7
305.6,-0.07,0.655
305.6,-0.065,0.6
305.6,-0.06,0.55
305.61,-0.085,0.48
305.61,-0.09,0.45
305.61,-0.085,0.42
305.61,-0.09,0.375
305.62,-0.105,0.335
305.62,-0.12,0.28
305.62,-0.135,0.24
305.62,-0.15,0.22
305.63,-0.135,0.19
305.63,-0.12,0.17
305.63,-0.125,0.15
305.64,-0.13,0.115
305.64,-0.12,0.09
305.64,-0.135,0.075
305.64,-0.15,0.075
305.65,-0.165,0.05
305.65,-0.155,0.04
305.65,-0.155,0.02
305.66,-0.155,0.005
305.66,-0.16,0.005
305.66,-0.175,0.005
305.66,-0.165,0.005
305.67,-0.165,0
305.67,-0.18,-0.025
305.67,-0.175,-0.025
305.67,-0.18,-0.02
305.68,-0.19,-0.015
305.68,-0.18,-0.01
305.68,-0.185,-0.015
305.69,-0.185,-0.025
305.69,-0.18,-0.025
305.69,-0.2,-0.03
305.69,-0.19,-0.015
305.7,-0.185,-0.01
305.7,-0.195,-0.02
305.7,-0.21,-0.03
305.71,-0.21,-0.03
305.71,-0.2,-0.02
305.71,-0.18,-0.005
305.71,-0.165,-0.015
305.72,-0.17,-0.02
305.72,-0.18,-0.025
305.72,-0.2,-0.025
305.72,-0.215,-0.025
305.73,-0.215,-0.01
305.73,-0.21,-0.005
305.73,-0.205,-0.015
305.74,-0.2,-0.025
305.74,-0.205,-0.025
305.74,-0.195,-0.02
305.74,-0.195,-0.01
305.75,-0.2,-0.015
305.75,-0.205,-0.005
305.75,-0.205,-0.02
305.76,-0.215,-0.045
305.76,-0.225,-0.04
305.76,-0.22,-0.025
305.76,-0.215,-0.035
305.77,-0.21,-0.03
305.77,-0.225,-0.04
305.77,-0.23,-0.055
305.77,-0.235,-0.05
305.78,-0.22,-0.05
305.78,-0.225,-0.05
305.78,-0.225,-0.06
305.79,-0.23,-0.065
305.79,-0.235,-0.075
305.79,-0.24,-0.06
305.79,-0.23,-0.055
305.8,-0.225,-0.065
305.8,-0.235,-0.07
305.8,-0.24,-0.09
305.81,-0.23,-0.09
305.81,-0.23,-0.09
305.81,-0.235,-0.085
305.81,-0.23,-0.09
305.82,-0.23,-0.095
305.82,-0.22,-0.11
305.82,-0.225,-0.12
305.82,-0.24,-0.115
305.83,-0.23,-0.115
305.83,-0.225,-0.11
305.83,-0.23,-0.12
305.84,-0.24,-0.13
305.84,-0.25,-0.145
305.84,-0.255,-0.145
305.84,-0.245,-0.13
305.85,-0.235,-0.145
305.85,-0.235,-0.145
305.85,-0.24,-0.165
305.86,-0.245,-0.165
305.86,-0.255,-0.165
305.86,-0.25,-0.165
305.86,-0.245,-0.15
305.87,-0.245,-0.17
305.87,-0.26,-0.17
305.87,-0.26,-0.185
305.88,-0.265,-0.17
305.88,-0.255,-0.17
305.88,-0.25,-0.165
305.88,-0.255,-0.175
305.89,-0.26,-0.185
305.89,-0.265,-0.185
305.89,-0.275,-0.185
305.89,-0.255,-0.175
305.9,-0.26,-0.18
305.9,-0.25,-0.18
305.9,-0.26,-0.19
305.91,-0.27,-0.205
305.91,-0.275,-0.19
305.91,-0.26,-0.19
305.91,-0.255,-0.175
305.92,-0.245,-0.175
305.92,-0.255,-0.19
305.92,-0.27,-0.195
305.92,-0.28,-0.185
305.93,-0.265,-0.185
305.93,-0.25,-0.185
305.93,-0.25,-0.19
305.94,-0.265,-0.195
305.94,-0.28,-0.205
305.94,-0.28,-0.2
305.94,-0.265,-0.195
305.95,-0.25,-0.19
305.95,-0.26,-0.185
305.95,-0.26,-0.19
305.96,-0.285,-0.205
305.96,-0.275,-0.195
305.96,-0.265,-0.195
305.96,-0.265,-0.18
305.97,-0.26,-0.19
305.97,-0.255,-0.2
305.97,-0.265,-0.215
305.97,-0.28,-0.2
305.98,-0.275,-0.195
305.98,-0.255,-0.2
305.98,-0.26,-0.2
305.99,-0.26,-0.205
305.99,-0.27,-0.22
305.99,-0.275,-0.21
305.99,-0.255,-0.19
306,-0.25,-0.185
306,-0.255,-0.195
306,-0.255,-0.195
306.01,-0.265,-0.195
306.01,-0.255,-0.175
306.01,-0.24,-0.145
306.01,-0.225,-0.115
306.02,-0.215,-0.005
306.02,-0.205,0.255
306.02,-0.19,0.625
306.02,-0.15,0.755
306.03,-0.065,0.57
306.03,0.125,0.35
306.03,0.48,0.235
306.04,0.78,0.205
306.04,0.725,0.175
306.04,0.425,0.145
306.04,0.21,0.12
306.05,0.15,0.09
306.05,0.17,0.015
306.05,0.19,-0.095
306.06,0.21,-0.25
306.06,0.195,-0.42
306.06,0.235,-0.62
306.06,0.26,-0.84
306.07,0.27,-1.055
306.07,0.27,-1.295
306.07,0.275,-1.55
306.07,0.25,-1.795
306.08,0.26,-1.955
306.08,0.26,-2.14
306.08,0.26,-2.305
306.09,0.255,-2.45
306.09,0.235,-2.555
306.09,0.225,-2.64
306.09,0.2,-2.73
306.1,0.185,-2.83
306.1,0.15,-2.925
306.1,0.105,-2.99
306.11,0.03,-3.03
306.11,-0.045,-3.05
306.11,-0.095,-3.06
306.11,-0.125,-3.07
306.12,-0.18,-3.085
306.12,-0.275,-3.1
306.12,-0.375,-3.11
306.12,-0.455,-3.11
306.13,-0.46,-3.1
306.13,-0.44,-3.095
306.13,-0.415,-3.085
306.14,-0.4,-3.08
306.14,-0.41,-3.065
306.14,-0.42,-3.03
306.14,-0.445,-2.96
306.15,-0.44,-2.885
306.15,-0.45,-2.77
306.15,-0.465,-2.65
306.16,-0.46,-2.535
306.16,-0.435,-2.345
306.16,-0.415,-2.125
306.16,-0.395,-1.89
306.17,-0.37,-1.64
306.17,-0.37,-1.41
306.17,-0.375,-1.19
306.17,-0.365,-0.93
306.18,-0.365,-0.69
306.18,-0.36,-0.475
306.18,-0.37,-0.29
306.19,-0.39,-0.115
306.19,-0.4,0.03
306.19,-0.41,0.185
306.19,-0.395,0.32
306.2,-0.395,0.455
306.2,-0.375,0.54
306.2,-0.37,0.59
306.21,-0.375,0.64
306.21,-0.375,0.7
306.21,-0.375,0.745
306.21,-0.345,0.78
306.22,-0.35,0.815
306.22,-0.35,0.83
306.22,-0.34,0.865
306.22,-0.345,0.92
306.23,-0.335,0.955
306.23,-0.33,0.985
306.23,-0.325,1.015
306.24,-0.32,1.04
306.24,-0.33,1.065
306.24,-0.335,1.07
306.24,-0.33,1.105
306.25,-0.31,1.12
306.25,-0.315,1.145
306.25,-0.32,1.155
306.26,-0.325,1.175
306.26,-0.33,1.195
306.26,-0.31,1.24
306.26,-0.285,1.265
306.27,-0.29,1.285
306.27,-0.295,1.3
306.27,-0.305,1.305
306.27,-0.32,1.34
306.28,-0.315,1.375
306.28,-0.315,1.4
306.28,-0.305,1.435
306.29,-0.31,1.445
306.29,-0.32,1.47
306.29,-0.32,1.52
306.29,-0.32,1.56
306.3,-0.315,1.605
306.3,-0.325,1.64
306.3,-0.335,1.66
306.31,-0.345,1.69
306.31,-0.35,1.72
306.31,-0.355,1.77
306.31,-0.34,1.775
306.32,-0.34,1.79
306.32,-0.33,1.795
306.32,-0.34,1.81
306.32,-0.335,1.83
306.33,-0.335,1.85
306.33,-0.315,1.855
306.33,-0.31,1.86
306.34,-0.325,1.83
306.34,-0.32,1.835
306.34,-0.31,1.835
306.34,-0.29,1.81
306.35,-0.275,1.795
306.35,-0.255,1.75
306.35,-0.26,1.705
306.36,-0.255,1.67
306.36,-0.25,1.63
306.36,-0.235,1.6
306.36,-0.215,1.555
306.37,-0.195,1.495
306.37,-0.185,1.425
306.37,-0.175,1.365
306.38,-0.175,1.29
306.38,-0.145,1.245
306.38,-0.135,1.165
306.38,-0.13,1.095
306.39,-0.13,1.02
306.39,-0.13,0.95
306.39,-0.13,0.885
306.39,-0.11,0.825
306.4,-0.11,0.765
306.4,-0.095,0.705
306.4,-0.105,0.635
306.41,-0.12,0.575
306.41,-0.115,0.525
306.41,-0.12,0.48
306.41,-0.12,0.435
306.42,-0.11,0.385
306.42,-0.125,0.335
306.42,-0.135,0.295
306.42,-0.145,0.265
306.43,-0.13,0.235
306.43,-0.13,0.225
306.43,-0.125,0.185
306.44,-0.15,0.155
306.44,-0.145,0.12
306.44,-0.165,0.105
306.44,-0.16,0.085
306.45,-0.15,0.08
306.45,-0.165,0.055
306.45,-0.17,0.04
306.46,-0.185,0.025
306.46,-0.185,0.02
306.46,-0.165,0.02
306.46,-0.17,0.02
306.47,-0.175,0.02
306.47,-0.185,0
306.47,-0.19,-0.005
306.47,-0.21,0
306.48,-0.185,0.005
306.48,-0.18,0.005
306.48,-0.185,0.005
306.49,-0.2,-0.025
306.49,-0.205,-0.02
306.49,-0.215,0
306.49,-0.185,-0.005
306.5,-0.185,0.01
306.5,-0.19,-0.005
306.5,-0.195,-0.01
306.51,-0.2,-0.015
306.51,-0.215,-0.005
306.51,-0.2,-0.005
306.51,-0.2,0
306.52,-0.195,-0.005
306.52,-0.2,-0.015
306.52,-0.21,-0.015
306.52,-0.21,-0.015
306.53,-0.2,0.005
306.53,-0.2,0.005
306.53,-0.205,-0.015
306.54,-0.205,-0.015
306.54,-0.22,-0.015
306.54,-0.22,-0.01
306.54,-0.21,0
306.55,-0.2,-0.005
306.55,-0.21,-0.015
306.55,-0.22,-0.015
